01/03/2005,15.644,15.644,14.502,14.559,13526681
01/04/2005,14.625,14.776,14.316,14.358,13162235
01/05/2005,14.36,14.447,14.079,14.219,8750958
01/06/2005,14.239,14.689,14.073,14.454,9431046
01/07/2005,14.458,14.458,14.16,14.338,4579590
01/10/2005,14.513,14.787,14.498,14.579,5131507
01/11/2005,14.656,14.754,14.483,14.673,5084083
01/12/2005,14.708,14.917,14.504,14.877,7013179
01/13/2005,14.954,15.209,14.877,15.062,5522036
01/14/2005,15.042,15.384,14.983,15.358,4474323
01/18/2005,15.536,15.799,15.536,15.705,7865388
01/19/2005,15.713,15.847,15.547,15.558,3829016
01/20/2005,15.47,15.716,15.277,15.595,6072109
01/21/2005,15.898,15.904,15.669,15.713,5827836
01/24/2005,15.832,15.924,15.817,15.821,5787737
01/25/2005,15.885,15.994,15.685,15.781,4451535
01/26/2005,15.876,16.036,15.755,16.014,5052181
01/27/2005,16.007,16.323,15.953,16.148,4315727
01/28/2005,16.146,16.255,16.032,16.238,6677299
01/31/2005,16.238,16.413,16.078,16.306,7579189
02/01/2005,16.402,16.699,16.398,16.666,6387470
02/02/2005,16.683,16.813,16.615,16.795,5518965
02/03/2005,17.225,17.269,16.659,16.942,10006393
02/04/2005,16.984,17.058,16.712,16.804,7150803
02/07/2005,16.819,16.896,16.631,16.879,6289035
02/08/2005,16.885,17.155,16.721,17.048,5793196
02/09/2005,17.017,17.368,16.824,17.166,6651347
02/10/2005,17.324,17.605,17.271,17.554,5229010
02/11/2005,17.554,17.908,17.447,17.824,7086085
02/14/2005,17.84,18.048,17.84,18.009,8193060
02/15/2005,18.026,18.189,17.875,18.026,5315145
02/16/2005,18.048,18.717,18.048,18.649,9371558
02/17/2005,18.75,18.794,18.272,18.325,9704705
02/18/2005,18.399,18.895,18.384,18.763,9145972
02/22/2005,18.919,19.382,18.919,19.014,10865433
02/23/2005,18.937,19.123,18.91,18.978,7841680
02/24/2005,19.075,19.382,18.981,19.382,7324678
02/25/2005,19.384,20.13,19.384,20.07,8366233
02/28/2005,20.12,20.47,19.578,19.951,12177464
03/01/2005,19.836,19.924,19.194,19.294,9374740
03/02/2005,19.297,19.841,19.213,19.784,5409706
03/03/2005,20.06,20.45,19.907,20.15,6214277
03/04/2005,20.13,20.77,19.99,20.53,4316860
03/07/2005,20.41,20.47,19.942,20.29,4067809
03/08/2005,20.19,20.7,20.19,20.65,4542678
03/09/2005,20.8,21.25,20.42,20.46,9896320
03/10/2005,20.19,20.19,19.341,19.687,8695946
03/11/2005,19.687,20.1,19.626,19.937,5002969
03/14/2005,19.99,20.12,19.512,20.08,3992395
03/15/2005,20.03,20.35,19.687,19.7,3898059
03/16/2005,19.696,20.22,19.384,19.876,5320380
03/17/2005,19.968,20.44,19.959,20.33,7094530
03/18/2005,21.07,21.25,20.85,21.16,10352277
03/21/2005,21.16,21.16,20.61,20.92,4458592
03/22/2005,20.92,21.16,20.4,20.44,4314823
03/23/2005,20.31,20.31,19.507,19.753,7157186
03/24/2005,19.832,20.41,19.718,20.003,4655970
03/28/2005,19.968,20.21,19.718,19.872,3638068
03/29/2005,19.872,20.29,19.617,19.639,5092275
03/30/2005,19.705,20.35,19.354,20.34,8045849
03/31/2005,20.96,21.43,20.91,21.39,6743387
04/01/2005,21.61,22.08,21.55,22.06,6872119
04/04/2005,22.24,23.04,21.66,21.97,8885075
04/05/2005,21.97,22.36,21.7,21.9,6630126
04/06/2005,21.9,22.12,21.46,21.96,7722280
04/07/2005,22.34,22.36,21.26,21.55,5994387
04/08/2005,21.46,21.51,20.7,20.75,6719005
04/11/2005,20.75,21.34,20.56,21.31,4290892
04/12/2005,21.31,21.41,20.7,20.79,4525581
04/13/2005,20.8,20.82,20.03,20.12,5446341
04/14/2005,20.34,20.8,19.981,20.06,7087854
04/15/2005,20.25,20.27,19.102,19.142,7877414
04/18/2005,19.194,19.686,18.799,19.673,5526711
04/19/2005,19.897,20.59,19.871,20.47,6109767
04/20/2005,20.48,20.75,19.963,19.989,3959869
04/21/2005,20.09,20.71,20.02,20.67,3615865
04/22/2005,20.71,21.04,20.48,20.76,3966471
04/25/2005,21.68,21.68,21.06,21.21,3980579
04/26/2005,21.22,21.26,20.89,21,4274512
04/27/2005,21.43,21.43,20.22,20.99,9143943
04/28/2005,20.81,21.06,20.55,20.78,6832860
04/29/2005,21.13,21.26,20.63,20.89,5604801
05/02/2005,20.62,21.72,20.47,21.69,5907828
05/03/2005,21.46,21.57,21.17,21.3,6031911
05/04/2005,21.42,21.52,20.84,21.41,8221644
05/05/2005,21.7,22.01,21.55,21.92,6341540
05/06/2005,22.07,22.14,21.7,21.83,5153093
05/09/2005,21.97,22.04,21.77,21.93,4822520
05/10/2005,21.87,22.01,21.45,21.5,3458540
05/11/2005,21.3,21.65,21.21,21.48,5595240
05/12/2005,21.35,21.38,19.765,19.967,11063442
05/13/2005,20.14,20.14,18.623,19.743,9628198
05/16/2005,19.647,19.717,19.111,19.699,5481394
05/17/2005,19.568,20.27,19.568,20.24,4121063
05/18/2005,20.37,20.74,20.12,20.39,5094134
05/19/2005,20.47,20.76,20.36,20.75,4435242
05/20/2005,20.89,21.08,20.67,21.02,6337441
05/23/2005,21.5,21.73,21.28,21.62,4385150
05/24/2005,21.64,21.9,21.46,21.9,3252266
05/25/2005,21.87,22.18,21.66,21.98,3994251
05/26/2005,21.96,22.23,21.86,22.19,3314184
05/27/2005,22.28,22.4,22.06,22.38,2327912
05/31/2005,21.83,22.04,21.71,21.89,5061573
06/01/2005,21.58,22.82,21.58,22.66,4310716
06/02/2005,22.75,22.84,22.38,22.65,4146564
06/03/2005,22.77,22.96,22.47,22.68,2401003
06/06/2005,22.92,23.04,22.67,22.88,2292188
06/07/2005,22.95,23.06,22.29,22.35,4147928
06/08/2005,22.37,23.34,22.35,23.04,6464018
06/09/2005,23.15,23.79,23.07,23.75,4804305
06/10/2005,23.83,23.91,23.57,23.8,3136604
06/13/2005,23.7,24.07,23.55,24.03,2967678
06/14/2005,24.04,24.36,23.91,24.34,3534135
06/15/2005,24.6,24.73,24.34,24.39,3761572
06/16/2005,24.62,24.75,24.43,24.61,3066951
06/17/2005,24.73,24.79,24.24,24.68,6536415
06/20/2005,25.1,25.36,24.89,25.19,4998503
06/21/2005,25.04,25.23,24.73,24.81,5334326
06/22/2005,25.04,25.33,24.85,24.99,8052491
06/23/2005,25.04,25.44,24.82,24.91,5010113
06/24/2005,24.99,25.19,24.42,24.54,5482076
06/27/2005,24.6,25.17,24.6,24.95,5754379
06/28/2005,24.9,24.91,24.43,24.58,4683180
06/29/2005,24.55,24.88,24.51,24.78,3994933
06/30/2005,24.57,25.45,24.56,24.99,5124185
07/01/2005,25.33,25.79,25.26,25.69,4276545
07/05/2005,25.91,26.38,25.83,26.33,5102097
07/06/2005,26.38,26.66,25.85,25.94,4048207
07/07/2005,25.78,26.52,25.61,26.51,5077061
07/08/2005,26.62,26.96,26.09,26.54,4609870
07/11/2005,26.27,26.66,26.13,26.53,4042503
07/12/2005,26.68,27.12,26.57,26.95,4954797
07/13/2005,27.14,27.14,26.46,26.69,2805356
07/14/2005,26.85,26.99,25.83,25.98,5165661
07/15/2005,26.03,26.33,25.55,25.78,5201619
07/18/2005,25.75,25.75,25.27,25.54,3369603
07/19/2005,25.13,26.44,25.13,26.43,3067458
07/20/2005,26.59,26.81,26.03,26.67,3754128
07/21/2005,26.66,26.86,26.12,26.43,3984825
07/22/2005,26.71,27.92,26.71,27.88,4801491
07/25/2005,27.8,28.55,27.56,28.25,5008914
07/26/2005,28.56,28.74,28.13,28.67,4864888
07/27/2005,28.7,28.96,27.98,28.01,6927615
07/28/2005,27.34,28,25.94,26.71,11130172
07/29/2005,26.83,26.99,26.69,26.83,4126342
08/01/2005,27.14,27.42,26.88,26.9,3551165
08/02/2005,27.1,27.55,26.91,27.53,4243297
08/03/2005,27.57,27.67,27.07,27.23,3026272
08/04/2005,27.32,27.85,27.17,27.41,4127026
08/05/2005,27.63,27.67,26.89,27.2,3079742
08/08/2005,27.45,27.84,27.21,27.29,4011226
08/09/2005,27.36,27.51,26.97,27.14,2735500
08/10/2005,27.56,28.01,27.36,27.72,5026878
08/11/2005,27.76,28.18,27.75,28.14,3798259
08/12/2005,28.3,28.32,27.9,28.02,3305898
08/15/2005,28.39,28.39,27.54,27.65,3048352
08/16/2005,27.47,27.77,26.85,26.87,3893368
08/17/2005,26.89,27.43,26.01,26.24,6201127
08/18/2005,26.14,26.64,25.82,26.33,4816641
08/19/2005,26.77,26.96,26.74,26.83,3257668
08/22/2005,27.03,27.24,26.72,26.95,3084976
08/23/2005,27.19,27.27,26.31,26.79,4168892
08/24/2005,26.81,27.42,26.68,27.11,3537292
08/25/2005,26.82,27.24,26.82,27.07,3619209
08/26/2005,27.05,27.25,26.48,26.55,3305457
08/29/2005,27.58,27.7,26.71,27.13,6082579
08/30/2005,27.36,27.88,27.36,27.76,6542638
08/31/2005,28.17,28.66,27.72,28.2,12927154
09/01/2005,28.61,29.26,28.27,29.2,8062939
09/02/2005,29.05,29.15,28.5,28.68,6331490
09/06/2005,29.14,29.16,28.56,29.05,3643545
09/07/2005,29.23,29.58,28.85,29.15,4838716
09/08/2005,29.32,29.95,29.21,29.65,4591861
09/09/2005,29.96,31.11,29.85,30.97,6184516
09/12/2005,30.77,31,30.34,30.75,8254740
09/13/2005,30.76,31.2,30.02,30.05,10185036
09/14/2005,30.33,30.75,30,30.43,6183830
09/15/2005,30.63,30.83,30.17,30.78,5537214
09/16/2005,30.87,31.23,30.55,31.07,5100373
09/19/2005,32.13,32.77,31.88,31.95,6310564
09/20/2005,31.96,32.07,31.25,31.53,5260342
09/21/2005,32.06,32.63,31.8,32.55,6198852
09/22/2005,32.76,33.32,31.36,32.46,6576985
09/23/2005,32.12,32.39,31.65,31.86,4511990
09/26/2005,31.43,32.88,31.43,32.77,4705169
09/27/2005,32.72,32.96,32.26,32.88,3850353
09/28/2005,33.01,33.45,32.3,33.39,6581085
09/29/2005,33.54,33.84,33.16,33.32,8014024
09/30/2005,33.29,33.4,32.83,32.92,5200714
10/03/2005,33.43,34.44,33.39,34.34,8855187
10/04/2005,34.22,34.28,33.02,33.07,6575792
10/05/2005,33.23,33.31,31.32,31.38,7214049
10/06/2005,29.9,30.5,28.99,29.71,12915546
10/07/2005,30.11,30.41,29.62,30.35,7003830
10/10/2005,30.88,30.9,29.37,29.79,5599103
10/11/2005,30.24,31.12,30.24,30.9,5303322
10/12/2005,30.92,31.03,29.77,29.99,6469365
10/13/2005,29.68,29.68,27.97,28.97,8271062
10/14/2005,28.98,29.62,28.15,29.39,7618219
10/17/2005,30.12,30.56,29.95,30.23,5337285
10/18/2005,29.63,30.19,28.29,28.32,6850330
10/19/2005,28.34,29.21,27.35,29.18,8677627
10/20/2005,28.81,28.94,26.37,26.87,12406808
10/21/2005,26.75,27.74,26.54,26.94,8683767
10/24/2005,26.58,28.38,26.56,28.22,5692000
10/25/2005,28.55,29.72,28.24,29.5,7921562
10/26/2005,29.46,30.6,28.88,29.05,6577005
10/27/2005,29.57,29.61,28.04,28.06,6130185
10/28/2005,28.12,29.37,27.37,28.98,8233764
10/31/2005,29.71,30.33,29.16,29.74,7344442
11/01/2005,29.46,30.08,29.22,29.93,5460976
11/02/2005,30.01,31.22,30.01,30.96,7189822
11/03/2005,31.11,31.91,30.88,31.53,6152689
11/04/2005,31.48,31.5,29.97,30.08,5966689
11/07/2005,29.42,29.8,28.87,29.19,7699178
11/08/2005,29.1,29.72,28.63,29.15,5074425
11/09/2005,29.25,29.96,28.37,28.9,6800761
11/10/2005,28.61,28.62,27.32,27.77,8530736
11/11/2005,27.42,28.49,27.42,28.21,4899327
11/14/2005,28.59,29,27.76,27.89,9026671
11/15/2005,27.78,29.86,27.75,29.05,9184015
11/16/2005,29.25,30.74,29.23,30.67,9212455
11/17/2005,31,31.15,30.21,30.58,7461102
11/18/2005,30.74,30.83,29.88,30.26,5562398
11/21/2005,30.48,31.8,30.48,31.78,6438067
11/22/2005,32.1,32.41,31.77,32.06,5285221
11/23/2005,31.44,31.99,31.01,31.36,5536702
11/25/2005,31.54,32.07,31.48,32.02,1612649
11/28/2005,31.31,31.36,30.08,30.27,6142012
11/29/2005,30.85,31.42,30.61,31.22,7454048
11/30/2005,31.67,31.93,31.24,31.55,6235297
12/01/2005,31.88,32.91,31.8,32.89,7833784
12/02/2005,32.92,33.2,32.28,33.03,5606743
12/05/2005,33.91,34.15,33.08,33.24,5739533
12/06/2005,32.97,33.42,32.7,33.35,7238944
12/07/2005,33.53,34.47,33.12,33.52,6064469
12/08/2005,33.67,34.61,33.56,34.58,6929690
12/09/2005,34.22,34.35,33.41,33.71,5534666
12/12/2005,34.7,35.17,34.3,34.65,5570133
12/13/2005,35.18,36.06,34.78,34.82,8765636
12/14/2005,34.87,35.58,34.65,35.52,6998807
12/15/2005,35.55,36.06,35.01,35.52,6984257
12/16/2005,35.56,35.56,34.04,34.12,6270265
12/19/2005,34.29,34.56,33.56,33.84,4331983
12/20/2005,33.84,34.27,33.67,34.08,3949306
12/21/2005,34.32,34.47,33.53,33.74,4803362
12/22/2005,34,34.17,33.35,33.42,5657214
12/23/2005,32.83,33.42,32.33,33.41,4334496
12/27/2005,33.06,33.08,31.57,31.9,6587458
12/28/2005,32.23,32.91,32.04,32.64,4144402
12/29/2005,32.62,33.15,32.17,32.26,3755798
12/30/2005,31.66,32.59,31.65,32.27,3641194
01/03/2006,32.54,34.76,32.54,34.73,9813436
01/04/2006,34.19,34.83,34.09,34.76,6541764
01/05/2006,34.59,34.59,33.21,33.47,7367413
01/06/2006,33.98,34.71,33.98,34.18,6098353
01/09/2006,34.22,34.48,33.48,34.39,5568985
01/10/2006,34.41,35.14,34.22,34.3,5623571
01/11/2006,34.26,34.65,33.76,34.44,6240245
01/12/2006,34.72,35.75,34.36,34.48,7482740
01/13/2006,34.32,35.41,34.28,35.27,6026136
01/17/2006,35.82,36.32,35.66,36.3,6941718
01/18/2006,36.08,36.08,34.59,35.38,6249771
01/19/2006,35.18,37.02,35.09,36.95,7779324
01/20/2006,37.44,37.98,36.76,37.27,8673879
01/23/2006,36.96,37.31,36.45,37.2,6948185
01/24/2006,36.79,37.38,36.54,36.62,6011592
01/25/2006,36.63,36.92,35.07,35.72,8295013
01/26/2006,35.33,35.42,34.14,35.24,8224777
01/27/2006,36.3,36.3,35.12,35.37,6967511
01/30/2006,35.64,37.04,35.62,36.66,6078417
01/31/2006,36.52,37.35,36.19,37.21,6685685
02/01/2006,37.47,38.24,36.31,36.49,9405018
02/02/2006,36.39,36.39,34.64,35.5,10728642
02/03/2006,35.09,35.27,34.55,34.77,8630256
02/06/2006,35.17,35.83,35.13,35.27,9867065
02/07/2006,34.43,34.56,32.52,32.56,12324108
02/08/2006,32.61,32.65,31.44,32.56,11551855
02/09/2006,32.65,33.13,30.58,30.92,11859558
02/10/2006,31.09,31.22,29.99,30.54,14055938
02/13/2006,30.22,30.62,29.79,30.03,9692289
02/14/2006,29.18,30.42,29.03,30.37,12636611
02/15/2006,30.73,31.17,30.08,30.49,10614790
02/16/2006,30.64,31.79,30.63,31.69,8879103
02/17/2006,32.12,32.33,31.44,31.49,7565023
02/21/2006,32.36,32.78,31.68,31.95,6492506
02/22/2006,31.67,31.85,30.84,31.03,7340696
02/23/2006,30.73,31.6,30.12,30.72,8765016
02/24/2006,31.31,31.46,30.8,30.87,5757270
02/27/2006,30.65,30.78,29.99,29.99,6384785
02/28/2006,29.7,29.76,28.87,29.68,9355473
03/01/2006,29.73,30.25,29.62,30.04,5375471
03/02/2006,30.13,31.04,29.82,30.53,8477970
03/03/2006,30.47,31.27,30.47,30.95,7513768
03/06/2006,30.58,30.76,28.96,29.3,10378420
03/07/2006,29.31,29.39,28.21,28.73,8031603
03/08/2006,28.64,29.68,28.45,29.34,12520485
03/09/2006,29.81,30.01,28.57,28.73,8903864
03/10/2006,28.67,29.4,28.25,28.79,6921615
03/13/2006,28.96,29.9,28.96,29.78,5635400
03/14/2006,29.78,30.65,29.15,30.51,7712728
03/15/2006,30.07,31.01,29.92,31,7093646
03/16/2006,30.86,32.18,30.8,32.12,9370241
03/17/2006,32.29,32.3,31.75,31.88,6799773
03/20/2006,31.24,31.85,30.08,30.23,9145007
03/21/2006,29.81,30.85,29.7,30.1,6541152
03/22/2006,30.14,31.17,30.05,30.54,6710236
03/23/2006,30.77,31.53,30.71,31.04,6575008
03/24/2006,31.15,31.92,31.08,31.66,5800242
03/27/2006,31.24,31.88,30.98,31.65,6637285
03/28/2006,31.9,32.29,31.72,31.91,5908178
03/29/2006,31.9,32.74,31.9,32.48,7432959
03/30/2006,32.49,33.1,32.43,32.58,5879107
03/31/2006,32.12,32.21,31.43,31.7,5996147
04/03/2006,32.3,32.53,31.49,31.65,5982505
04/04/2006,31.22,32.22,31.13,32.15,5615909
04/05/2006,32.2,32.74,31.98,32.68,5137633
04/06/2006,33.13,33.13,32.14,32.83,7455002
04/07/2006,32.38,32.61,31.49,31.72,5624539
04/10/2006,32.12,32.78,32.12,32.52,5705464
04/11/2006,32.69,32.89,31.84,32.07,4775445
04/12/2006,32.23,32.51,31.68,31.78,4688967
04/13/2006,31.02,31.79,30.53,31.68,6484748
04/17/2006,32.08,32.48,31.76,32.45,3893890
04/18/2006,32.75,34.04,32.74,33.93,7307260
04/19/2006,33.69,34.89,33.67,34.59,6548560
04/20/2006,34.28,34.44,33.15,33.72,5574341
04/21/2006,33.92,34.26,33.35,34.11,6472941
04/24/2006,33.71,33.72,32.81,33.11,4761599
04/25/2006,33.23,33.56,32.06,32.31,5747611
04/26/2006,32.35,33.11,31.39,31.56,5934509
04/27/2006,30.16,32.01,30.16,31.06,6680723
04/28/2006,32.81,32.81,30.76,30.9,5359965
05/01/2006,31.2,32.07,30.98,31.43,6245440
05/02/2006,32.24,32.41,31.87,32.05,6306705
05/03/2006,32.12,32.16,31.34,31.66,6536520
05/04/2006,31.27,31.93,30.88,31.47,5724903
05/05/2006,32.59,33.71,32.59,33.56,9317001
05/08/2006,32.63,32.93,32.19,32.8,5652230
05/09/2006,32.83,33.11,32.65,32.84,4584013
05/10/2006,32.63,33.37,32.55,33.33,5949489
05/11/2006,33.69,34.04,32.2,32.3,6581713
05/12/2006,31.9,32.06,30.21,30.4,9724164
05/15/2006,29.88,30.1,28.51,29.08,10306866
05/16/2006,29.49,29.63,28.93,29.26,7887011
05/17/2006,28.99,29.4,27.79,28.09,7967171
05/18/2006,28.12,28.62,27.2,27.31,9642628
05/19/2006,27.35,28.09,27.06,27.65,10863682
05/22/2006,27.17,27.84,26.46,27.69,11597182
05/23/2006,28.51,28.86,27.22,27.35,8866901
05/24/2006,26.86,27.69,26.32,27,10197867
05/25/2006,26.69,27.88,26.69,27.52,7656522
05/26/2006,27.87,28.32,27.57,28.03,7245037
05/30/2006,28.51,28.71,27.65,27.7,6052821
05/31/2006,27.7,28.93,27.45,28.93,9183919
06/01/2006,28.36,29.42,28.09,29.02,8471088
06/02/2006,29.45,29.45,28.5,29.02,6438648
06/05/2006,29.26,29.37,27.59,27.68,7561130
06/06/2006,27.77,28.61,27.66,28.22,8544892
06/07/2006,27.92,28.2,26.89,26.95,8958427
06/08/2006,26.34,26.88,25.14,26.76,18089191
06/09/2006,26.89,27.25,26.09,26.33,7827744
06/12/2006,26.36,26.69,25.28,25.36,8002927
06/13/2006,25.15,26.02,24.8,25.24,14090851
06/14/2006,25.52,26.72,25.47,26.62,12439685
06/15/2006,26.86,27.79,26.75,27.57,9750267
06/16/2006,27.35,28.09,26.84,27.75,9194811
06/19/2006,27.65,27.65,25.74,26.01,10853022
06/20/2006,26.1,26.69,25.87,25.99,8694079
06/21/2006,26.06,27.24,26.06,26.8,7436690
06/22/2006,26.8,27.05,26.42,26.73,6129581
06/23/2006,28.13,28.95,28.06,28.47,11195918
06/26/2006,28.41,28.98,28.05,28.91,5368152
06/27/2006,29.09,29.44,28.98,29.1,8548065
06/28/2006,29.31,29.42,28.91,29.28,6212446
06/29/2006,29.77,30.6,29.51,30.23,7897232
06/30/2006,30.25,30.82,30.06,30.59,7961960
07/03/2006,30.92,31.34,30.76,31.27,2970990
07/05/2006,31.13,31.63,30.71,31.54,7951283
07/06/2006,31.57,31.9,31.21,31.3,8059376
07/07/2006,31.66,31.87,30.2,30.48,10169938
07/10/2006,30.05,30.93,30.05,30.59,7643119
07/11/2006,30.85,31.23,30.62,31.07,5718990
07/12/2006,30.87,31.4,30.55,30.98,6672774
07/13/2006,31.03,31.36,30.45,30.64,9227822
07/14/2006,30.79,30.98,29.79,30.91,7262906
07/17/2006,30.52,30.69,29.45,29.72,7860539
07/18/2006,30.18,30.22,28.88,29.43,6935490
07/19/2006,29.48,30.16,29.33,29.95,5510143
07/20/2006,30.02,30.31,29.31,29.32,4883682
07/21/2006,29.46,29.49,28.34,28.4,7799055
07/24/2006,28.71,29.82,28.65,29.71,6992896
07/25/2006,30.08,31.06,29.97,30.58,6410231
07/26/2006,30.52,31.82,30.25,31.64,8427324
07/27/2006,31.92,32,30.97,31.12,6243004
07/28/2006,30.85,31.76,30.68,31.73,5572068
07/31/2006,32.13,33.3,32.06,32.81,9457882
08/01/2006,32.18,32.46,31.32,31.51,11312062
08/02/2006,31.78,32.32,30.97,31.19,7731894
08/03/2006,30.34,31.04,30.32,30.61,6744448
08/04/2006,30.68,30.94,30.13,30.68,6635763
08/07/2006,30.76,31.23,30.4,30.82,6326273
08/08/2006,30.64,31.12,30.44,30.53,6154747
08/09/2006,30.99,31.6,30.68,30.99,5992968
08/10/2006,30.88,30.97,30.29,30.79,6026330
08/11/2006,30.7,30.72,29.93,30.07,4739828
08/14/2006,29.81,29.82,29.02,29.14,7034874
08/15/2006,29.51,29.51,28.98,29.25,7391320
08/16/2006,29.2,29.63,28.62,28.75,8786725
08/17/2006,28.42,28.91,28.32,28.85,6632134
08/18/2006,28.87,29.35,28.71,29.27,6082602
08/21/2006,29.35,29.72,29.29,29.34,4456660
08/22/2006,29.31,29.71,29.2,29.62,4003554
08/23/2006,29.53,29.86,28.92,29.03,4391090
08/24/2006,29.09,29.78,28.89,29.75,5256484
08/25/2006,30.32,30.81,30.12,30.49,6810929
08/28/2006,29.75,30.34,29.55,29.93,4547195
08/29/2006,29.66,29.66,28.87,28.96,8910832
08/30/2006,28.93,29.2,28.26,28.74,6339215
08/31/2006,28.49,29.05,28.35,28.6,7503861
09/01/2006,28.58,29.14,28.58,29.08,3014743
09/05/2006,28.79,29.45,28.79,29.39,4244965
09/06/2006,28.77,28.89,27.8,27.84,8233104
09/07/2006,27.62,28.07,27.41,27.77,6840420
09/08/2006,27.77,27.9,26.72,26.86,6504160
09/11/2006,26.32,26.77,25.76,26.36,9453118
09/12/2006,26.39,26.76,26.02,26.36,6445181
09/13/2006,26.32,27.19,26.32,26.81,8521257
09/14/2006,26.87,27.13,25.78,25.94,8340435
09/15/2006,26.07,26.44,25.83,26.36,8390337
09/18/2006,26.8,28.15,26.79,27.59,12660038
09/19/2006,27.65,27.86,26.86,27.26,8555526
09/20/2006,26.99,27.4,26.58,26.92,10493197
09/21/2006,26.97,28.18,26.96,27.55,11597949
09/22/2006,27.63,27.73,27.1,27.38,9013126
09/25/2006,27.13,27.96,26.75,27.94,11753376
09/26/2006,27.77,28.44,27.55,28.33,10323949
09/27/2006,28.45,28.85,27.94,28.78,9562477
09/28/2006,28.67,28.98,28.16,28.21,11468164
09/29/2006,28.6,28.96,28.2,28.7,10914546
10/02/2006,28.78,29.02,28.36,28.4,9453797
10/03/2006,27.77,27.81,27.25,27.33,12491679
10/04/2006,27.37,27.82,26.39,27.76,15121613
10/05/2006,28.49,28.49,27.53,28.04,10259233
10/06/2006,27.81,28.06,27.28,27.91,7346631
10/09/2006,28.12,28.5,27.58,27.69,6954323
10/10/2006,27.59,28.49,27.54,28.12,7911361
10/11/2006,27.88,28.08,27.43,27.49,8637203
10/12/2006,27.59,28.21,27.49,28.11,7648397
10/13/2006,28.23,28.97,28.2,28.68,7721194
10/16/2006,28.65,29.8,28.65,29.72,9165177
10/17/2006,29.55,29.58,28.83,29.19,7357610
10/18/2006,29.12,29.51,28.79,29.14,7619650
10/19/2006,29.31,29.74,28.91,29.67,7603788
10/20/2006,29.72,29.74,28.82,29.22,6298790
10/23/2006,28.99,29.32,28.68,29.16,6678247
10/24/2006,29.08,30.47,29.01,30.4,8820837
10/25/2006,29.67,31.24,29.61,31.03,8403289
10/26/2006,31.32,31.35,30.21,30.57,6428226
10/27/2006,30.48,30.91,29.94,29.98,4939393
10/30/2006,29.65,30.05,29.34,29.53,7275781
10/31/2006,29.51,29.7,28.7,29.31,9872178
11/01/2006,29.23,29.45,28.71,29.12,7820269
11/02/2006,28.81,29.28,28.49,28.97,7556403
11/03/2006,29.42,30.06,29.31,29.63,5764280
11/06/2006,29.32,29.88,29.09,29.5,6122872
11/07/2006,29.68,29.68,29.1,29.21,6375763
11/08/2006,29.12,29.98,29.08,29.84,5797360
11/09/2006,30.2,30.87,29.91,30.54,10842388
11/10/2006,30.17,30.21,29.45,29.76,5530561
11/13/2006,29.17,29.98,29.17,29.55,5060880
11/14/2006,29.83,29.92,29.55,29.9,4959787
11/15/2006,29.67,30.46,29.67,30.2,6889957
11/16/2006,30.5,30.63,29,29.08,6536116
11/17/2006,28.9,30.22,28.9,30.13,7199381
11/20/2006,29.95,30.22,29.57,30.06,6083893
11/21/2006,30.17,30.76,29.99,30.7,9476618
11/22/2006,30.68,30.8,30.13,30.69,7324062
11/24/2006,30.81,31.18,30.66,30.68,2295828
11/27/2006,30.85,30.94,30.4,30.43,5418808
11/28/2006,30.52,31.51,30.52,31.33,7775832
11/29/2006,31.5,31.88,30.68,31.79,12932157
11/30/2006,31.39,31.5,30.73,31.15,10984043
12/01/2006,30.84,31.2,30.38,31.17,5396368
12/04/2006,30.88,30.93,30.25,30.51,5369385
12/05/2006,30.69,30.85,30.3,30.57,6112446
12/06/2006,30.4,31.12,30.4,30.61,4551742
12/07/2006,30.59,30.73,30.23,30.4,3877825
12/08/2006,30.64,30.73,30.17,30.28,4118109
12/11/2006,30.22,30.48,29.8,30.17,4419598
12/12/2006,30.19,30.51,29.88,30.09,4372042
12/13/2006,30.4,30.58,30.02,30.3,4094523
12/14/2006,30.47,30.96,30.25,30.81,6604785
12/15/2006,30.8,30.86,29.97,30.26,5254460
12/18/2006,29.95,29.95,28.73,28.86,6983130
12/19/2006,28.37,29.61,27.92,29.34,5360094
12/20/2006,29.36,29.37,28.63,28.67,5588363
12/21/2006,28.85,28.97,28.36,28.68,5482274
12/22/2006,28.67,28.71,28.33,28.41,3418349
12/26/2006,27.84,28.61,27.77,27.89,3788739
12/27/2006,27.86,28.19,27.5,28.12,5486357
12/28/2006,28.23,28.4,27.93,28.05,3881915
12/29/2006,27.9,28.06,27.29,27.51,6372225
01/03/2007,27.27,27.27,26.12,26.83,10271813
01/04/2007,27.29,27.29,26.37,26.81,10622049
01/05/2007,27.04,27.79,26.87,27.59,12735839
01/08/2007,27.61,28.23,27.05,27.47,7147525
01/09/2007,27.01,27.3,26.52,27.12,10777315
01/10/2007,27.03,27.18,26.49,26.87,6840173
01/11/2007,27.21,27.39,26.34,26.47,8991988
01/12/2007,26.49,27.57,26.49,27.46,6800880
01/16/2007,27.43,27.86,27.16,27.4,5958239
01/17/2007,27.34,27.74,27.26,27.42,5920879
01/18/2007,27.6,27.69,27.03,27.25,4557401
01/19/2007,27.56,28.65,27.44,28.57,6962798
01/22/2007,28.92,29.34,28.43,28.67,7911411
01/23/2007,28.95,30.08,28.95,29.76,7235669
01/24/2007,29.58,29.77,29.01,29.74,5260302
01/25/2007,29.63,29.63,28.61,28.73,6781633
01/26/2007,28.97,29.26,28.74,28.97,4000768
01/29/2007,29.22,29.8,28.68,28.7,5299942
01/30/2007,28.72,30.24,28.72,30.05,7565142
01/31/2007,29.45,30.8,29.29,30.56,7627880
02/01/2007,30.69,30.89,30.07,30.71,8884025
02/02/2007,30.66,30.71,30.05,30.32,5111235
02/05/2007,30.47,30.8,29.97,30,5646859
02/06/2007,30.43,30.44,29.45,29.65,5530005
02/07/2007,29.66,29.9,29.13,29.37,4529558
02/08/2007,29.39,29.5,28.95,29.43,5804468
02/09/2007,29.52,29.86,29.27,29.43,3177389
02/12/2007,29,29.22,28.44,28.76,5068761
02/13/2007,29.14,29.22,28.74,29.04,5743599
02/14/2007,29.14,29.44,28.97,29.22,4834978
02/15/2007,29.06,29.19,28.58,29.03,5967526
02/16/2007,29.12,29.82,29.11,29.59,7215739
02/20/2007,29.32,29.42,29.14,29.32,5285665
02/21/2007,29.41,29.86,29.07,29.72,4616279
02/22/2007,29.92,30.38,29.73,30.24,6028659
02/23/2007,30.47,30.54,29.79,29.95,4185994
02/26/2007,30.32,30.8,30.17,30.78,4946531
02/27/2007,30,30.83,29.48,29.83,3909960
02/28/2007,29.85,30.16,29.45,29.92,3926941
03/01/2007,29.33,30,29.14,29.59,3496464
03/02/2007,29.52,29.68,29.01,29.12,3062340
03/05/2007,28.6,29.08,28.26,28.63,6314905
03/06/2007,28.97,29.23,28.8,29.21,5974313
03/07/2007,29.22,30.16,29.07,29.69,6106568
03/08/2007,29.82,30.01,29.42,29.57,4453452
03/09/2007,29.76,29.92,29.37,29.58,2907232
03/12/2007,29.25,29.36,29.05,29.21,3506260
03/13/2007,29.18,30.04,29.01,29.1,6191029
03/14/2007,29.34,29.77,28.97,29.75,5736763
03/15/2007,29.67,29.85,29.39,29.43,3112386
03/16/2007,29.54,29.61,28.84,28.95,5959593
03/19/2007,29.34,29.55,29.15,29.47,3550150
03/20/2007,29.72,30.04,29.48,30.04,4676292
03/21/2007,30.13,30.91,30.05,30.75,7490654
03/22/2007,31.13,31.74,31.01,31.45,7655516
03/23/2007,31.47,31.64,31.21,31.56,4664057
03/26/2007,31.79,32.06,31.27,32.01,5797673
03/27/2007,31.81,32.07,31.56,31.77,5905923
03/28/2007,32.24,32.28,31.4,31.62,5522767
03/29/2007,31.9,31.97,31.51,31.72,3950034
03/30/2007,31.78,31.78,31.35,31.45,6423819
04/02/2007,31.56,32.14,31.5,32.04,3855136
04/03/2007,31.68,32.27,31.42,32.26,4127584
04/04/2007,32.03,32.88,31.91,32.76,7040812
04/05/2007,32.7,33.07,32.55,33.03,5544608
04/09/2007,33.05,33.5,32.73,32.84,4731587
04/10/2007,32.94,33.58,32.88,33.52,5073471
04/11/2007,32.76,33.65,32.76,33.18,4169914
04/12/2007,33.52,34.12,33.3,34.08,4272235
04/13/2007,34.03,34.31,33.83,34.04,4245341
04/16/2007,33.97,34.24,33.42,34.22,4744108
04/17/2007,34.26,34.36,33.42,33.53,6192642
04/18/2007,33.42,33.42,32.94,33.01,7024646
04/19/2007,32.89,32.89,32.29,32.5,5581105
04/20/2007,32.53,32.88,32.29,32.71,6720050
04/23/2007,32.21,32.96,32.2,32.81,3475176
04/24/2007,32.88,33.04,32.69,32.92,3909265
04/25/2007,33.05,33.66,32.99,33.34,4703718
04/26/2007,33.11,33.16,32.61,32.96,4801923
04/27/2007,32.78,33.15,32.63,32.85,4022788
04/30/2007,32.77,33.26,32.47,32.5,4896238
05/01/2007,33.04,34.18,32.63,33.51,12484128
05/02/2007,33.57,34.31,33.47,34.25,5282460
05/03/2007,34.16,34.55,33.87,34.49,6483043
05/04/2007,34.54,34.78,33.89,33.98,4163535
05/07/2007,33.88,34.26,33.8,34.13,3537674
05/08/2007,33.88,33.96,33.13,33.89,5974175
05/09/2007,33.91,33.99,33.28,33.59,5497149
05/10/2007,33.48,33.77,32.85,32.96,4377266
05/11/2007,33.4,33.61,32.99,33.6,4333660
05/14/2007,33.66,34.33,33.63,34.11,5380668
05/15/2007,33.96,34.16,33.41,33.52,4702751
05/16/2007,33.62,33.73,33,33.45,5655765
05/17/2007,33.51,34.18,33.07,33.92,5688956
05/18/2007,33.4,34.75,33.4,34.66,5318329
05/21/2007,34.81,35.02,34.41,34.72,3710597
05/22/2007,34.72,34.95,34.21,34.21,3673889
05/23/2007,34.22,34.99,34.16,34.27,4425513
05/24/2007,34.92,34.97,33.36,33.55,4850043
05/25/2007,33.95,34.13,33.49,33.89,4616156
05/29/2007,33.78,33.91,33.14,33.49,4239346
05/30/2007,34.26,34.42,33.33,34.39,4400392
05/31/2007,34.63,34.71,33.94,34.01,4827057
06/01/2007,34.45,34.6,34.01,34.16,5398086
06/04/2007,33.88,34.97,33.83,34.91,4180458
06/05/2007,34.57,34.79,34.31,34.51,4278931
06/06/2007,35.01,35.01,33.6,33.8,4701787
06/07/2007,33.64,34.29,33.01,33.09,5615444
06/08/2007,32.78,33.33,32.46,33.29,4495989
06/11/2007,33.29,33.76,33.07,33.44,3210663
06/12/2007,33.45,34.14,33.19,33.54,5060841
06/13/2007,33.65,34.34,33.62,34.26,4509416
06/14/2007,34.31,35.48,34.28,35.38,6736628
06/15/2007,35.5,35.69,35.07,35.59,5384505
06/18/2007,35.98,36.03,35.42,35.54,3743927
06/19/2007,35.35,35.43,35.05,35.13,4091202
06/20/2007,35.24,35.55,33.87,33.89,5675358
06/21/2007,34.41,34.92,34.07,34.9,4957075
06/22/2007,34.53,34.75,33.33,34.03,7912796
06/25/2007,33.25,33.38,32.57,32.88,11202479
06/26/2007,33.56,33.66,31.92,32.09,7992951
06/27/2007,31.64,32.68,31.54,32.64,7462701
06/28/2007,32.77,33.09,31.77,32.01,7946638
06/29/2007,31.93,33.03,31.93,32.35,10135500
07/02/2007,32.46,32.77,32.09,32.77,6137659
07/03/2007,32.22,33.24,32.02,33.02,3208277
07/05/2007,32.72,33.3,32.63,32.99,5551437
07/06/2007,33.38,33.57,33.05,33.18,5866740
07/09/2007,32.95,33.38,32.74,32.92,4801640
07/10/2007,32.74,33.36,32.64,32.8,6153824
07/11/2007,32.34,32.97,32.34,32.92,5655708
07/12/2007,33.15,33.27,32.56,32.96,4554416
07/13/2007,32.79,33.42,32.56,33.17,4108399
07/16/2007,33.04,33.14,31.92,32.33,5494123
07/17/2007,32.64,32.91,32.11,32.18,4993973
07/18/2007,31.97,33.35,31.96,33.28,7974408
07/19/2007,33.44,33.83,33.18,33.78,5362890
07/20/2007,33.84,34.05,33.08,33.22,6662224
07/23/2007,32.58,32.58,31.61,31.89,10780682
07/24/2007,31.49,31.62,30.95,31.14,7649934
07/25/2007,30.94,31.64,30.54,31.55,6461346
07/26/2007,31.37,31.49,30.23,30.96,8922142
07/27/2007,30.96,31.46,30.28,30.57,7303923
07/30/2007,30.88,31.73,30.8,31.45,7602612
07/31/2007,31.98,32.11,30.93,30.99,6583526
08/01/2007,31.27,32.07,30.66,31.74,8050637
08/02/2007,32.07,32.89,31.5,32.42,9541329
08/03/2007,31.78,32.55,31.09,31.18,9263903
08/06/2007,31.15,31.31,29.98,31.17,8000853
08/07/2007,31.31,32.06,30.7,31.87,10274848
08/08/2007,32.31,33.4,32.05,32.46,8624111
08/09/2007,31.88,33.57,31.47,32.44,8556796
08/10/2007,31.43,32.08,30.74,31.86,8950575
08/13/2007,32.07,32.31,31.63,31.68,6268109
08/14/2007,31.52,31.93,31.07,31.15,4707981
08/15/2007,31.44,31.81,30.31,30.34,6400101
08/16/2007,29.88,30.76,29.04,30.67,10243677
08/17/2007,31.06,31.9,30.71,31.73,7553308
08/20/2007,30.92,31.36,30.33,30.84,6720820
08/21/2007,30.62,30.86,29.88,30.07,6344682
08/22/2007,30.45,30.53,29.31,29.48,8773459
08/23/2007,29.83,30,29.18,29.7,5139465
08/24/2007,29.92,30.19,29.62,30.05,3683696
08/27/2007,29.93,29.93,29.41,29.56,3595705
08/28/2007,29.37,29.51,28.9,29.09,4726938
08/29/2007,29.33,29.65,29.02,29.5,3608693
08/30/2007,29.53,30.09,29.26,29.58,4787046
08/31/2007,29.84,30.29,29.78,29.78,3724812
09/04/2007,29.82,30.92,29.6,30.64,4435287
09/05/2007,30.6,31.06,30.54,30.72,5278840
09/06/2007,30.84,31.69,30.84,31.3,7295548
09/07/2007,31.02,31.11,30.57,30.94,5094954
09/10/2007,30.9,31.23,30.28,31.18,5751239
09/11/2007,31.17,31.67,30.63,31.58,5430433
09/12/2007,31.69,32.52,31.61,32.12,7959040
09/13/2007,32.07,32.21,31.63,31.69,4316240
09/14/2007,31.43,32.16,31.43,31.98,3584519
09/17/2007,32.12,32.23,31.68,31.75,3140828
09/18/2007,31.87,32.73,31.34,32.65,5381641
09/19/2007,33.07,33.19,32.66,32.88,4811882
09/20/2007,32.69,32.92,32.39,32.65,3444684
09/21/2007,33.03,33.31,32.68,32.92,3688664
09/24/2007,32.93,33.14,32.43,32.62,3775189
09/25/2007,32.29,32.42,31.71,32.28,3879679
09/26/2007,32.51,32.73,31.74,32.02,6334294
09/27/2007,32.31,32.37,31.71,32,5278609
09/28/2007,32.23,32.35,31.83,32.01,3566444
10/01/2007,32.05,32.5,31.96,32.4,3797002
10/02/2007,32.22,33.44,32.19,33.11,4849682
10/03/2007,32.91,33.16,32.63,33,4364131
10/04/2007,33.03,34.08,32.79,33.92,6317357
10/05/2007,33.82,34.48,33.75,34.25,6666386
10/08/2007,33.89,34.21,33.67,33.86,2797449
10/09/2007,34.13,34.9,33.94,34.68,4953988
10/10/2007,34.45,35.41,34.36,35.23,4876730
10/11/2007,35.38,36.56,35.33,35.82,9183467
10/12/2007,35.59,36.24,35.51,36.05,3827300
10/15/2007,36.4,36.91,35.94,36.19,5079383
10/16/2007,36.18,36.47,36.01,36.26,4579560
10/17/2007,36.34,36.58,35.85,36.13,5594123
10/18/2007,36.1,36.66,36.03,36.41,6217389
10/19/2007,36.28,36.36,35.3,35.36,9011518
10/22/2007,34.52,34.78,33.9,34.75,7630029
10/23/2007,35.12,35.35,34.06,34.29,8500215
10/24/2007,34.26,35.03,33.84,34.84,6118776
10/25/2007,34.95,35.93,34.95,35.79,5420373
10/26/2007,36.45,36.75,35.79,36.26,3890159
10/29/2007,36.55,36.67,36.24,36.54,5490781
10/30/2007,37.26,38.25,37.19,38.09,17527937
10/31/2007,38.5,39.75,38.24,39.3,11207647
11/01/2007,38.76,39.22,38.11,38.4,8820617
11/02/2007,38.84,38.97,38.22,38.87,5555662
11/05/2007,38.44,38.78,37.14,38.57,4553606
11/06/2007,39.17,40.21,38.82,39.23,7882997
11/07/2007,39.04,39.48,38.42,38.42,5802747
11/08/2007,38.46,39.68,38.17,39.02,7022756
11/09/2007,38.61,39.13,38.27,38.7,7103582
11/12/2007,38,38.19,36.67,37.32,7838929
11/13/2007,37.59,38.03,36.68,37.86,6908345
11/14/2007,38.66,39.8,38.38,38.55,6365447
11/15/2007,38.59,38.63,37.3,37.76,6306529
11/16/2007,37.84,38.4,37.46,37.8,8893961
11/19/2007,38.05,38.07,37.13,37.22,4705025
11/20/2007,37.43,37.71,36.72,37.08,7377964
11/21/2007,36.83,37.16,36.34,36.54,4669308
11/23/2007,36.68,37.24,36.38,37.05,2410576
11/26/2007,37.29,37.78,36.75,36.75,3933508
11/27/2007,36,36.62,35.8,36.52,4857479
11/28/2007,36.76,37.16,36.18,37.05,5825384
11/29/2007,37.06,37.61,36.63,36.87,4580247
11/30/2007,36.56,37.24,36.34,36.67,5130849
12/03/2007,36.56,37.05,36.27,36.67,3721156
12/04/2007,36.75,36.89,36.15,36.71,4814246
12/05/2007,37.12,37.96,36.97,37.77,5773065
12/06/2007,37.76,39.54,37.64,39.41,6527118
12/07/2007,39.51,39.75,38.58,39.01,5806499
12/10/2007,39.1,39.44,38.85,39.36,4240010
12/11/2007,39.44,40,38.92,38.93,6987954
12/12/2007,39.85,40.53,39.67,40.31,6118915
12/13/2007,39.8,40.61,39.48,40.07,6525312
12/14/2007,39.86,39.94,39.13,39.19,5558862
12/17/2007,39.06,39.46,38.46,38.74,3962598
12/18/2007,39.35,39.4,38.4,38.69,5028625
12/19/2007,38.99,39.51,38.7,39.16,3581026
12/20/2007,39.43,39.87,39.16,39.82,3398679
12/21/2007,40.08,40.24,39.82,40.01,4792299
12/24/2007,39.75,40.53,39.75,40.39,1308085
12/26/2007,40.23,40.44,39.94,40.02,4072988
12/27/2007,39.92,40.24,39.68,39.74,2726468
12/28/2007,39.85,40.42,39.75,40.23,3314910
12/31/2007,40.2,40.47,39.48,39.49,2259209
01/02/2008,39.88,40.77,39.88,40.5,5420235
01/03/2008,40.46,41.82,40.37,41.27,5763655
01/04/2008,40.86,40.86,39.36,39.46,6413458
01/07/2008,39.75,40.12,38.62,39.22,5466840
01/08/2008,39.54,40.23,38.41,38.5,4509498
01/09/2008,38.66,39.67,38.66,39.53,6823720
01/10/2008,39.14,39.67,38.63,39.41,5985580
01/11/2008,38.95,39.68,38.81,39.47,6484383
01/14/2008,39.65,41.46,39.65,41.29,6471284
01/15/2008,40.48,41.23,40.09,40.29,7419353
01/16/2008,40.2,40.74,39.01,39.32,11814813
01/17/2008,39.35,40.22,37.26,37.26,7918528
01/18/2008,37.46,38.32,36.91,37.79,8678743
01/22/2008,36.42,37.75,35.26,37.03,8490086
01/23/2008,36.12,36.79,34.23,36.63,9318472
01/24/2008,37.26,38.21,36.7,37.92,7161282
01/25/2008,38.26,38.78,36.98,37.3,6435379
01/28/2008,37.25,37.89,36.63,37.85,4581953
01/29/2008,38.04,38.26,37.31,37.73,4205949
01/30/2008,37.47,39.46,37.47,38.41,6448763
01/31/2008,37.65,39.09,37.12,38.72,5655048
02/01/2008,38.78,39.68,38.54,39.68,6207576
02/04/2008,39.53,40.38,39.42,40.21,4307060
02/05/2008,39.11,39.94,38.85,38.86,6351337
02/06/2008,39.41,39.79,38.68,38.99,6949010
02/07/2008,38.64,40.37,38.64,40.02,8024846
02/08/2008,40.53,42.28,40.48,41.65,9600453
02/11/2008,41.56,43.71,41.31,43.55,12250440
02/12/2008,43.84,44.58,42.93,43.42,9021044
02/13/2008,43.86,44.69,43.74,44.39,8293759
02/14/2008,43.86,44.57,43.31,43.35,7984029
02/15/2008,43.05,43.82,41.61,42.65,7667410
02/19/2008,43.59,44.78,42.87,43.61,9010931
02/20/2008,43.05,44.79,43.05,44.57,6053999
02/21/2008,44.76,44.76,43.23,43.36,6313242
02/22/2008,43.42,44.16,43.01,44.14,4672086
02/25/2008,44.37,46.43,44.37,46.2,10993969
02/26/2008,46.06,48.31,45.41,48.04,14874480
02/27/2008,47.24,47.97,46.78,46.89,7365902
02/28/2008,50.01,57.62,49.92,55.33,37022822
02/29/2008,54.62,54.95,52.31,52.75,12271928
03/03/2008,52.82,54.77,52.36,54.27,11811068
03/04/2008,53.23,54.32,51.72,53.07,11390982
03/05/2008,53.67,53.95,52.86,53.44,10401454
03/06/2008,53.13,53.56,52.04,52.19,8191196
03/07/2008,51.65,52.53,50.99,51.68,9207332
03/10/2008,51.66,51.66,50.36,50.79,7974538
03/11/2008,51.8,54.21,51.49,54.05,8947346
03/12/2008,54,54.2,52.04,52.86,6508117
03/13/2008,52.11,56.84,52.11,56.36,12016279
03/14/2008,56.05,56.32,54.52,55.92,9414615
03/17/2008,54.71,55.08,51.99,53.32,8669270
03/18/2008,54.75,54.78,53.59,54.71,7792375
03/19/2008,54.79,55.51,50.1,50.24,11458922
03/20/2008,48.79,50.18,46.97,49.71,13560485
03/24/2008,50.1,51.41,49.42,50.5,6652711
03/25/2008,50.91,52.23,50.32,51.57,5687853
03/26/2008,51.35,53.92,51.35,53.44,7534563
03/27/2008,53.39,54.51,52.28,52.31,5505102
03/28/2008,52.79,53.6,52.13,52.72,4255483
03/31/2008,53.47,54.09,52.12,53.25,5029051
04/01/2008,53.77,54,52.24,53.59,5083850
04/02/2008,53.8,54.86,52.67,53.88,5296219
04/03/2008,53.41,54.83,53.41,53.79,5278389
04/04/2008,54.41,55.58,54.16,54.96,4332198
04/07/2008,55.42,57.03,55.13,55.97,6821867
04/08/2008,55.56,57.42,55.56,57.2,5447019
04/09/2008,56.68,57.66,56.17,56.66,6164399
04/10/2008,56.53,57.87,56.53,57.63,5986811
04/11/2008,56.93,57.31,55.75,56.02,5404956
04/14/2008,56.16,57.55,56.16,56.74,5412447
04/15/2008,57.76,59.73,57.23,58.3,5313411
04/16/2008,59.04,59.05,57.52,58.94,5133489
04/17/2008,59.05,59.9,58.23,58.64,5418612
04/18/2008,59.04,59.72,57.31,59.55,4696464
04/21/2008,59.93,61.52,59.63,61.13,7295587
04/22/2008,61.26,62.38,60.59,60.97,4391397
04/23/2008,60.83,61.27,59.85,60.99,5036210
04/24/2008,60.2,60.49,58.12,58.49,5256077
04/25/2008,58.92,60.53,58.12,60.34,5728281
04/28/2008,60.8,60.89,59.38,59.61,4331083
04/29/2008,58.91,58.91,56.79,56.99,6349383
04/30/2008,57.06,58.15,56.6,57.81,5922781
05/01/2008,57.36,57.44,54.49,56.28,7674987
05/02/2008,55.59,57.72,55.02,56.68,6681820
05/05/2008,57.17,59.32,57.04,58.88,4771062
05/06/2008,58.58,61.34,58.58,61.18,5843546
05/07/2008,61.76,61.87,59.87,59.93,6361005
05/08/2008,59.75,62.24,59.58,62.07,7478405
05/09/2008,62.55,62.55,60.37,61.48,5713343
05/12/2008,61.23,61.23,59.98,60.31,6358900
05/13/2008,60.88,61.76,59.62,61.45,6214255
05/14/2008,61.97,62.1,59.72,59.79,5732950
05/15/2008,61.08,61.45,58.98,60.29,7764365
05/16/2008,60.92,62.99,60.87,62.57,7600433
05/19/2008,63.1,63.1,61.78,62.04,7593999
05/20/2008,62.24,64.06,61.8,63.8,7510019
05/21/2008,63.94,64.37,61.62,61.63,10630955
05/22/2008,61.7,62.39,60.14,60.59,6235032
05/23/2008,61.27,61.72,58.8,59.95,6201748
05/27/2008,59.83,59.89,58.63,59.13,4626523
05/28/2008,58.37,59.73,57.74,59.69,7369931
05/29/2008,59.3,59.3,56.56,56.68,9124999
05/30/2008,56.86,57.86,55.83,57.03,11397959
06/02/2008,56.79,57.86,55.9,56.42,9529613
06/03/2008,56.26,57.21,54.94,55.12,10353126
06/04/2008,54.68,56.21,54.44,55.16,8281664
06/05/2008,55.45,58.29,55.44,58.26,10393663
06/06/2008,58.73,60.94,57.24,57.27,9483376
06/09/2008,57.61,59.37,57.26,58.52,6970963
06/10/2008,58.65,58.82,56.05,56.95,7629187
06/11/2008,57.63,57.92,56.19,57.03,6478073
06/12/2008,57.94,58.16,56.76,57.09,8545777
06/13/2008,56.56,58.15,56.21,57.74,6127783
06/16/2008,58.27,58.99,57.01,57.41,6191123
06/17/2008,57.74,58.89,57.27,58.56,6848319
06/18/2008,58.43,59.22,57.48,59.13,5884419
06/19/2008,59.9,59.98,57.81,57.9,8007752
06/20/2008,58.38,59.18,57.38,57.9,8123852
06/23/2008,57.9,60.19,57.45,60.09,7631275
06/24/2008,59.93,59.93,57.88,57.98,6349111
06/25/2008,58.14,58.14,55.4,56.86,5768123
06/26/2008,56.51,57.65,55.81,56.04,8781169
06/27/2008,56.77,58.13,56,57.78,9699579
06/30/2008,58.55,59.49,58.09,58.34,7161622
07/01/2008,58.4,59.07,57.72,58.32,6969285
07/02/2008,58.72,59.45,55.28,55.32,7803451
07/03/2008,55.28,55.94,53.16,53.47,7729788
07/07/2008,52.82,53.51,50.83,51.17,10020135
07/08/2008,50.61,52.34,48.89,52.06,13951372
07/09/2008,52.61,53.12,49.36,49.37,8388430
07/10/2008,49.47,51.8,49.47,51.73,7238235
07/11/2008,52.06,53,51.37,52.72,9693941
07/14/2008,53.25,53.52,51.82,52.94,6526506
07/15/2008,52.27,53.32,49.57,49.62,9564645
07/16/2008,49.08,49.52,47.04,48.2,12160285
07/17/2008,48.61,49.52,45.26,46.76,13692597
07/18/2008,46.67,48.58,46.25,47.22,7607737
07/21/2008,48,48.93,46.83,48.42,7467483
07/22/2008,47.97,48.56,46.07,47.17,11443144
07/23/2008,47.22,47.85,45.34,45.78,10532875
07/24/2008,46.4,47.12,43.87,44.98,12904825
07/25/2008,45.65,47.11,44.85,46.32,8361380
07/28/2008,46.38,47.55,45.28,45.28,7397692
07/29/2008,44.78,45.41,43.61,44.34,11676151
07/30/2008,43.7,46.81,43.56,46.65,11348443
07/31/2008,47.84,47.84,44.52,44.72,9773948
08/01/2008,45.17,46.52,44.36,44.67,8475528
08/04/2008,44.36,44.54,41.11,41.49,9539775
08/05/2008,41.78,42.22,40.47,42.09,12148065
08/06/2008,42.36,43.67,41.85,43.58,9402615
08/07/2008,43.59,44.35,42.4,42.43,11233243
08/08/2008,41.47,42.25,41.21,41.72,7841139
08/11/2008,42.37,42.68,40.91,42.4,7256414
08/12/2008,42.68,44.04,42.31,42.4,9595135
08/13/2008,42.26,44.45,42.25,44.15,6571026
08/14/2008,44.65,44.65,42.6,43.17,7887203
08/15/2008,42.51,42.81,41.75,42.44,6457987
08/18/2008,42.69,43.33,41.93,42.11,6910839
08/19/2008,41.94,44.56,41.94,44.44,9297552
08/20/2008,45.44,47.11,45.19,46.93,11761070
08/21/2008,48.36,48.36,46.43,47.25,7603170
08/22/2008,47.19,47.19,45.16,46.05,5806906
08/25/2008,45.95,46.35,44.81,45.44,5559271
08/26/2008,46.62,48.39,46.62,47.96,10465604
08/27/2008,48.75,49.57,48.02,48.48,6349257
08/28/2008,49.54,49.54,45.82,46.75,8087770
08/29/2008,47.55,47.56,46.12,46.46,6322470
09/02/2008,43.96,45.43,42.27,42.57,10108387
09/03/2008,42.46,43.2,40.71,41.82,11457183
09/04/2008,41.77,42.6,40.02,41.55,10923387
09/05/2008,42.2,42.83,40.93,42.6,10959668
09/08/2008,43.54,43.55,40.64,41.02,12461204
09/09/2008,40.3,40.69,37.49,37.51,13056213
09/10/2008,37.79,39.96,37.79,39.03,17637104
09/11/2008,38.94,39.72,37.06,39.36,12716746
09/12/2008,39.12,40.63,39.12,40.38,8994086
09/15/2008,37.81,39.65,37.41,37.96,13954087
09/16/2008,37.35,38.78,35.61,38.65,13884454
09/17/2008,38.72,40.76,37.35,39.41,17580518
09/18/2008,40.44,42.16,38.89,41.15,12789948
09/19/2008,43.37,45.11,40.48,43.11,12436994
09/22/2008,43.22,44.63,42.32,42.55,8024102
09/23/2008,41.78,44.38,41.71,42.29,10874115
09/24/2008,43,43.44,41.9,42.18,6521172
09/25/2008,41.78,43.45,41.28,43.06,6448393
09/26/2008,41.81,42.58,39.92,42.07,6391027
09/29/2008,40.44,40.44,32.15,37.78,12053905
09/30/2008,38.52,40.33,38.21,39.78,7878464
10/01/2008,39.15,40.36,36.95,39.89,8981026
10/02/2008,39.4,39.4,34.87,34.95,11005813
10/03/2008,35.06,38.33,34.68,35.6,10464452
10/06/2008,33.33,33.97,29.86,33.36,18419431
10/07/2008,34.21,34.87,31.67,31.68,13879879
10/08/2008,30.2,33.16,29.29,31.34,16618141
10/09/2008,32.48,32.78,28.68,28.84,11709279
10/10/2008,27.38,28.75,24.19,27.01,19846037
10/13/2008,27.57,31.99,27.46,31.92,12824071
10/14/2008,32.85,34.77,30.28,31.42,16737047
10/15/2008,30.48,30.48,26.74,27.05,14784451
10/16/2008,28,31.26,26.65,31.11,17425813
10/17/2008,30.03,34.31,29.17,30.7,16458014
10/20/2008,31.91,33.89,31.38,33.69,14248357
10/21/2008,32.44,33.59,30.95,32.19,11424343
10/22/2008,30.76,30.93,28.24,29.42,8381315
10/23/2008,30.01,30.58,26.99,29.64,11078969
10/24/2008,27.28,30.06,25.63,29.43,10265078
10/27/2008,28.09,30.58,27.73,27.89,8339665
10/28/2008,28.75,30.32,26.7,30.2,9814576
10/29/2008,30.93,34.05,30.32,32.19,13160070
10/30/2008,32.93,34.57,32.02,34.38,9669656
10/31/2008,33.53,36.79,32.51,35.92,9249210
11/03/2008,34.66,35.47,33.11,33.65,9079408
11/04/2008,35.07,38.07,34.54,37.5,11081213
11/05/2008,36.57,37.83,35.74,36.43,8819687
11/06/2008,35.12,35.9,33.41,34.39,9486025
11/07/2008,34.75,36.66,34.28,35.5,7826229
11/10/2008,36.93,37.84,35.11,36.13,7753131
11/11/2008,35.14,36.14,34.1,34.91,8968526
11/12/2008,34.29,35.04,33.53,33.94,12311761
11/13/2008,34.1,38.24,32.39,37.85,18661907
11/14/2008,37.08,38.22,35.61,35.79,12463687
11/17/2008,35.7,37.6,35.24,35.8,9746119
11/18/2008,36.13,37.44,34.81,36.73,9397589
11/19/2008,37.2,37.48,34.11,34.29,11080733
11/20/2008,33.49,33.92,28.5,28.86,15202921
11/21/2008,29.78,33.57,29.03,33.27,16015308
11/24/2008,34.53,38.37,33.65,37,12175649
11/25/2008,37.49,38.04,36.22,37.4,11148736
11/26/2008,36.19,39.58,36,39.46,11805916
11/28/2008,38.48,38.95,36.58,38.07,3954589
12/01/2008,36.3,36.87,33.68,33.78,11658522
12/02/2008,34.96,35.77,33.74,35.59,10294790
12/03/2008,34.82,36.49,34.55,35.62,8482697
12/04/2008,34.65,34.96,30.06,30.64,14417340
12/05/2008,29.83,30.42,27.97,30.28,13139831
12/08/2008,31.53,32.49,29.98,30.76,12748459
12/09/2008,30.32,32.67,29.52,31.35,9938400
12/10/2008,32.01,33.81,31.86,32.78,11186222
12/11/2008,33.38,34.92,31.8,32.03,9311604
12/12/2008,30.6,31.06,29.73,30.26,9299747
12/15/2008,31.19,31.9,30.03,30.84,8904932
12/16/2008,31.47,31.77,30.62,31.58,6330546
12/17/2008,31.53,32.36,30.87,30.94,8219147
12/18/2008,30.79,31.11,28.61,28.8,8717920
12/19/2008,28.89,29.72,28.49,28.89,10200438
12/22/2008,28.82,28.9,26.67,27.19,6745210
12/23/2008,27.32,28.76,27.2,28.21,7204115
12/24/2008,27.45,28.05,27.29,27.94,2790762
12/26/2008,28.07,28.76,28.06,28.6,2705318
12/29/2008,29.25,29.61,28.65,29.41,4596399
12/30/2008,29.33,29.38,28.43,29.31,5522630
12/31/2008,28.91,30.17,28.79,29.6,4681926
01/02/2009,30.25,31.57,29.8,31.29,5679163
01/05/2009,31.25,32.43,30.74,31.47,8651730
01/06/2009,31.85,32.23,31.4,31.63,12154881
01/07/2009,31.25,31.48,29.63,30.58,7575496
01/08/2009,31.01,31.32,30.16,30.99,6737852
01/09/2009,30.97,31.46,29.46,29.59,7727018
01/12/2009,29.15,29.42,27.85,28.33,7754588
01/13/2009,28.3,30.16,28.01,29.82,10443194
01/14/2009,29.27,29.59,27.98,28.32,9830703
01/15/2009,28.22,28.85,27.42,28.64,11088487
01/16/2009,28.87,29.22,27.66,28.37,8525705
01/20/2009,27.96,28.95,26.9,27.06,9361264
01/21/2009,27.27,29.27,27.18,29.14,8981107
01/22/2009,28.06,29.17,27.67,28.41,7432533
01/23/2009,27.86,30.18,27.4,29.65,9228868
01/26/2009,30.21,31.21,29.91,30.39,8141794
01/27/2009,30.16,30.28,29.47,29.75,7505257
01/28/2009,30.34,31.31,29.82,31.2,9452439
01/29/2009,30.51,31.17,30.35,30.63,9796869
01/30/2009,31.23,31.57,30.02,30.31,9411056
02/02/2009,29.61,30.32,29.45,29.92,10978433
02/03/2009,30.15,30.47,29.58,30.24,9914700
02/04/2009,30.64,31.26,30.31,30.61,10757253
02/05/2009,30.35,31.29,29.89,30.79,10993977
02/06/2009,30.17,30.93,29.64,30.53,9262337
02/09/2009,30.9,31.75,30.45,31.54,8975434
02/10/2009,31.66,32,29.35,29.63,9030917
02/11/2009,30.16,30.21,28.27,28.74,8758000
02/12/2009,28.18,28.85,27.82,28.61,7795026
02/13/2009,28.82,29.14,28.25,28.37,7736735
02/17/2009,27.66,27.66,25.01,25.09,14176764
02/18/2009,25.36,25.46,24.54,25.27,13109685
02/19/2009,25.43,25.84,24.62,24.93,11729171
02/20/2009,24.37,25.08,24.17,24.6,10677933
02/23/2009,24.98,25.15,22.69,22.76,11811558
02/24/2009,22.97,23.83,22.73,23.76,8986184
02/25/2009,23.75,23.89,22.82,23.25,9869091
02/26/2009,23.59,23.9,22.82,22.91,7292506
02/27/2009,22.34,23.04,21.8,22.29,8627366
03/02/2009,21.54,22.17,20.09,20.32,12493461
03/03/2009,20.75,22.18,20.31,21.47,17373193
03/04/2009,22.07,23.55,21.97,22.77,16924960
03/05/2009,22.45,23.58,22.12,23.14,17578130
03/06/2009,23.76,24.25,22.41,23.27,13136148
03/09/2009,22.86,23.43,22.3,22.5,9650206
03/10/2009,23.01,24.09,22.88,23.58,10123221
03/11/2009,23.79,24.41,23.42,24.1,8604453
03/12/2009,24.47,26.37,23.94,26.27,15758234
03/13/2009,26.21,26.52,25.77,26.29,10018331
03/16/2009,26.15,28.1,26.15,27.49,10199960
03/17/2009,27.44,28.15,26.96,28.15,11979283
03/18/2009,27.86,28.02,26.11,27.62,13928933
03/19/2009,28.39,29.21,28.15,28.22,9804787
03/20/2009,28.65,29,27.34,27.59,9428944
03/23/2009,28.4,29.74,28.3,29.47,7954857
03/24/2009,28.96,29.22,28.23,28.4,5196826
03/25/2009,28.47,29.4,27.44,28.28,8678025
03/26/2009,28.59,29.09,27.45,27.65,8331859
03/27/2009,27.19,27.25,26.25,26.44,6538826
03/30/2009,25.73,26.09,24.7,25.29,6704220
03/31/2009,25.52,26.06,24.37,24.41,9189033
04/01/2009,23.99,25.62,23.69,25.47,8354020
04/02/2009,26.18,27.4,26.17,26.84,8145892
04/03/2009,26.91,28.7,26.74,28.17,7598210
04/06/2009,27.69,27.7,26.61,27.05,5656138
04/07/2009,26.48,26.67,25.69,25.87,4432114
04/08/2009,25.56,26.54,24.89,26.29,6571668
04/09/2009,27.23,27.69,26.62,27.31,5913215
04/13/2009,26.96,28.01,26.21,27.64,7367432
04/14/2009,27.66,27.99,26.95,27.05,7978795
04/15/2009,26.83,27.53,26.14,26.46,7229891
04/16/2009,26.92,26.97,25.67,26.17,7897454
04/17/2009,25.85,27.13,25.64,26.92,9451890
04/20/2009,26.17,26.25,24.98,25.07,7570038
04/21/2009,24.87,25.51,24.54,25.42,7730177
04/22/2009,25.38,25.85,24.93,25.25,7315495
04/23/2009,25.49,27.01,25.38,26.91,10815973
04/24/2009,28,28.69,27.59,28.29,11352412
04/27/2009,27.49,28.18,27.04,27.93,6227419
04/28/2009,27.52,28.62,27.34,28.3,8130403
04/29/2009,28.34,29.93,28.27,29.35,8354636
04/30/2009,29.55,29.8,27.94,28.38,9030453
05/01/2009,28.4,29.81,28.3,29.53,8380735
05/04/2009,29.66,32.27,29.64,32.2,10449222
05/05/2009,32.07,32.3,30.86,31.81,8430257
05/06/2009,32.59,34.73,32.33,34.67,15467825
05/07/2009,34.81,35.39,32.41,32.89,15271793
05/08/2009,33.49,34.69,33.25,34.3,9720533
05/11/2009,33.69,33.76,32.59,32.97,8227244
05/12/2009,33.52,33.53,31.74,32.72,9718681
05/13/2009,31.89,32.46,30.94,31.48,7528884
05/14/2009,31.45,32.17,30.94,31.85,5456872
05/15/2009,31.72,32.12,30.19,30.56,8091435
05/18/2009,30.93,32.19,30.93,31.78,7550313
05/19/2009,31.84,32.7,31.64,32.18,6057622
05/20/2009,32.54,33.46,32.28,32.42,6066645
05/21/2009,31.78,31.88,30.78,31.23,7425278
05/22/2009,31.44,31.63,30.84,30.94,4001876
05/26/2009,29.49,31.07,29.28,30.97,8162490
05/27/2009,31.07,31.46,30.36,30.51,9428936
05/28/2009,30.4,32.9,30.4,32.48,10085184
05/29/2009,32.86,33.05,32.27,32.79,6620074
06/01/2009,33.43,34.64,33.42,34.28,7247135
06/02/2009,33.99,34.24,33.13,34.13,9412020
06/03/2009,33.47,33.47,31.88,32.45,8405847
06/04/2009,32.87,33.2,32.08,32.8,7730821
06/05/2009,33.31,33.47,32.32,32.87,9254425
06/08/2009,32.1,33.14,32.1,32.93,7509663
06/09/2009,33.15,33.78,32.86,33.35,7359572
06/10/2009,33.79,33.86,32.9,33.66,8124382
06/11/2009,33.76,35.11,33.61,34.48,9161604
06/12/2009,34.23,34.78,33.81,34.77,6611870
06/15/2009,34.09,34.63,33.31,34.1,9491417
06/16/2009,34.36,34.44,32.76,33,7666080
06/17/2009,33.13,33.34,32.07,32.8,6284354
06/18/2009,32.75,33.14,32.03,32.21,5854669
06/19/2009,32.59,32.59,30.95,31.31,14882305
06/22/2009,30.79,30.79,29.75,30.21,11847751
06/23/2009,30.3,30.3,29.38,30.06,10524014
06/24/2009,30.19,30.53,29.83,30.11,9230440
06/25/2009,30.24,30.86,30.12,30.68,8086487
06/26/2009,30.55,30.94,30.19,30.22,12859228
06/29/2009,30.37,30.76,29.84,29.95,9455050
06/30/2009,29.86,30.64,29.72,30.41,10193097
07/01/2009,30.74,31.19,29.94,29.95,8114014
07/02/2009,29.36,29.42,28.55,28.58,7918976
07/06/2009,27.77,28.14,27.5,27.99,9729603
07/07/2009,28.08,28.08,27.04,27.09,9800261
07/08/2009,27.12,27.87,26.96,27.63,11465791
07/09/2009,27.86,28.18,27.46,28.05,9107924
07/10/2009,27.52,28.15,27.27,27.93,7067514
07/13/2009,27.93,28.55,27.44,28.52,6724780
07/14/2009,28.86,29.1,28.45,28.92,6402712
07/15/2009,29.3,29.94,29.16,29.78,8831495
07/16/2009,29.53,31.25,29.49,31,8026877
07/17/2009,30.77,31.57,30.64,31.22,6454316
07/20/2009,31.58,32.48,31.58,32.39,7061176
07/21/2009,32.78,32.89,31.86,32.51,4885020
07/22/2009,32.37,32.5,31.84,31.99,5459601
07/23/2009,32,33.17,31.92,33.07,6384566
07/24/2009,32.95,33.51,32.86,33.46,4766588
07/27/2009,33.55,33.6,33.17,33.32,5650271
07/28/2009,32.87,33.24,32.06,32.93,4739524
07/29/2009,32.41,32.41,31.43,31.78,4918515
07/30/2009,32.47,33.02,31.78,32.64,6620821
07/31/2009,32.47,33.6,32.21,33.18,5583779
08/03/2009,33.71,34.82,33.71,34.32,6045279
08/04/2009,34.1,34.74,33.72,34.71,5615913
08/05/2009,34.76,35.02,34.12,35,6800132
08/06/2009,35.32,35.68,34.5,35.11,6335831
08/07/2009,35.23,35.7,33.4,33.51,9894152
08/10/2009,33.45,34.51,33.45,34.15,7186869
08/11/2009,33.93,34.05,33.01,33.03,4481440
08/12/2009,32.88,33.64,32.88,33.23,4624972
08/13/2009,33.3,33.96,33.29,33.9,3947062
08/14/2009,33.88,33.97,33.12,33.48,5188878
08/17/2009,32.87,32.87,31.83,32.17,4548841
08/18/2009,32.17,32.63,31.93,32.41,3662467
08/19/2009,32.17,33.43,31.87,33.08,4072690
08/20/2009,33.12,33.53,32.9,32.94,5070778
08/21/2009,33.24,34.22,33.14,33.94,4860934
08/24/2009,34.32,34.48,33.77,33.96,3019279
08/25/2009,34.14,34.46,33.26,33.35,4045364
08/26/2009,33.06,33.29,32.56,33.16,4017313
08/27/2009,32.83,33.01,32.26,32.67,5816256
08/28/2009,33.12,33.35,32.49,32.85,3632312
08/31/2009,32.16,32.32,31.89,32.31,4114433
09/01/2009,32.16,32.66,31.52,31.65,5350846
09/02/2009,31.61,31.82,31.31,31.36,5287534
09/03/2009,31.73,31.73,31.12,31.23,4781642
09/04/2009,31.13,31.66,30.76,31.59,5052898
09/08/2009,32.49,33.38,32.39,32.99,10421036
09/09/2009,33.09,33.62,32.67,33.35,5594116
09/10/2009,33.38,34.51,33.11,34.38,6494801
09/11/2009,34.6,35.1,33.88,34.04,7559664
09/14/2009,33.72,34.61,33.56,34.53,4670181
09/15/2009,34.77,35.94,34.68,35.78,7752388
09/16/2009,36.13,37.33,35.75,37.3,6908813
09/17/2009,37.22,37.78,36.73,37.02,7477055
09/18/2009,37.25,37.31,36.24,36.67,4985196
09/21/2009,36,36.52,35.64,36.41,4544943
09/22/2009,36.94,37.84,36.77,37.67,6259288
09/23/2009,37.67,37.84,36.79,36.81,5587640
09/24/2009,36.78,36.88,35.25,35.88,6538606
09/25/2009,35.8,36.31,35.17,35.4,4887516
09/28/2009,35.57,35.95,35.35,35.87,2931318
09/29/2009,35.86,36.69,35.37,36.59,7155677
09/30/2009,36.9,37.81,36.43,37.43,10298294
10/01/2009,37.46,37.46,36.27,36.33,10232881
10/02/2009,35.74,36.44,35.58,36.23,8414196
10/05/2009,36.2,37.2,35.96,36.94,7102584
10/06/2009,37.5,37.96,37.14,37.89,6285039
10/07/2009,37.84,38.1,37.15,37.97,5941081
10/08/2009,38.21,40.3,38.06,40.21,10036972
10/09/2009,39.97,40.78,39.59,40.16,8249841
10/12/2009,40.82,41.1,40.37,40.61,5671593
10/13/2009,40.62,40.62,39.4,40.2,8004914
10/14/2009,40.86,41.15,40.29,41.09,6123227
10/15/2009,40.79,41.91,40.73,41.82,6921587
10/16/2009,41.72,41.89,41.09,41.67,5073570
10/19/2009,41.56,42.44,41.56,42.36,5235393
10/20/2009,42.44,42.65,41.8,42.41,6090397
10/21/2009,42.04,43.04,41.69,41.74,6390343
10/22/2009,40.68,41.14,40.06,41.04,7121709
10/23/2009,41.37,41.46,39.68,40.09,5111532
10/26/2009,40.11,41.11,38.85,38.99,6506161
10/27/2009,39.37,39.77,38.81,38.99,4739113
10/28/2009,38.65,38.97,37.65,37.84,6715478
10/29/2009,38.23,38.69,37.83,38.51,9035123
10/30/2009,38.53,38.53,36.31,36.66,7615054
11/02/2009,36.7,37.4,36.08,36.78,6142934
11/03/2009,36.43,37.46,36.22,37.26,5184206
11/04/2009,38.04,39.13,37.92,38.34,9320062
11/05/2009,38.54,39.53,37.86,39.51,6760696
11/06/2009,40.6,41.43,40.14,40.6,10264530
11/09/2009,40.41,41.57,40.41,41.51,6725312
11/10/2009,41.35,41.6,40.37,40.95,6692729
11/11/2009,41.29,41.52,40.37,40.53,5925071
11/12/2009,40.32,40.65,39.24,39.92,6527506
11/13/2009,39.81,40.36,39.54,39.74,6551487
11/16/2009,40.54,40.81,40.09,40.62,11207058
11/17/2009,40.47,40.48,39.85,40.38,3914405
11/18/2009,40.53,40.54,39.37,39.83,4862236
11/19/2009,39.5,39.5,38.49,39.04,5502257
11/20/2009,38.73,38.94,38.25,38.84,7110878
11/23/2009,39.64,40.17,39.41,39.59,5938822
11/24/2009,39.67,39.83,39.06,39.81,6977822
11/25/2009,39.83,40.43,39.47,40.27,4724812
11/27/2009,38.8,39.43,38.34,39.17,1963680
11/30/2009,38.7,39.32,38.38,38.82,6416335
12/01/2009,39.33,40.15,39.25,39.64,4931498
12/02/2009,39.57,39.8,38.86,39.08,3196288
12/03/2009,39.05,39.46,38.69,39,6135956
12/04/2009,39.61,40.51,38.47,39.07,7430982
12/07/2009,38.96,39.88,38.63,39.19,4729754
12/08/2009,38.98,39.02,38.14,38.27,4873489
12/09/2009,38.5,38.82,37.72,38.44,5029671
12/10/2009,38.43,39.3,38.43,38.93,5248079
12/11/2009,39.06,39.23,38.55,38.68,4730066
12/14/2009,40.48,41.26,40.36,40.6,14684078
12/15/2009,40.48,41.34,40.41,41.23,9100886
12/16/2009,41.41,42.35,41.31,41.91,6325672
12/17/2009,41.85,42.49,41.05,41.54,5484846
12/18/2009,41.99,42.25,41.42,41.77,6132161
12/21/2009,42.13,42.76,42.13,42.52,4950638
12/22/2009,42.91,43.98,42.66,43.89,4965836
12/23/2009,43.9,44.87,43.85,44.83,6082812
12/24/2009,44.89,45.55,44.68,45.17,2046442
12/28/2009,45.69,45.69,44.69,44.87,3277822
12/29/2009,44.97,45.22,44.19,44.57,4354526
12/30/2009,44.57,44.77,44.2,44.33,2409056
12/31/2009,44.37,44.78,43.68,43.69,2212718
01/04/2010,44.6,45.09,44.56,45.06,4559047
01/05/2010,44.45,44.9,43.9,44.55,4778577
01/06/2010,44.38,44.76,43.85,44.64,3899148
01/07/2010,44.4,44.47,43.75,44.21,4997677
01/08/2010,43.88,44.58,43.23,44.47,6579296
01/11/2010,44.71,44.81,43.56,44.04,3064997
01/12/2010,42.99,43.59,42.72,42.84,4890215
01/13/2010,42.8,44.14,42.29,43.94,4669509
01/14/2010,43.92,44.38,43.82,44.03,3405053
01/15/2010,44.07,44.47,43.48,43.56,6541308
01/19/2010,43.31,43.88,43.2,43.78,4886642
01/20/2010,43.09,43.4,42.83,43.34,4480967
01/21/2010,43.42,43.87,42.85,43.45,7084397
01/22/2010,43.29,43.7,42.16,42.31,6471435
01/25/2010,42.65,43.23,42.55,42.69,3084448
01/26/2010,42.55,42.75,41.57,41.89,4287391
01/27/2010,41.47,42.19,40.51,41.54,7254817
01/28/2010,41.82,41.97,40.28,41.13,5813684
01/29/2010,41.26,42.28,40.19,40.62,6975690
02/01/2010,41.03,43.01,41.03,42.92,4925280
02/02/2010,43.09,43.71,42.38,43.6,4196796
02/03/2010,43.21,44.16,43.19,43.69,4715330
02/04/2010,43.06,43.18,41.72,41.75,5357015
02/05/2010,41.51,41.99,40.22,41.5,6670571
02/08/2010,41.61,42.15,40.87,41.18,4666265
02/09/2010,41.83,42.85,41.54,42.49,5897150
02/10/2010,40.75,40.91,39.02,39.65,17744655
02/11/2010,39.54,40.99,39.47,40.94,7918200
02/12/2010,40.23,41.03,39.84,40.94,6349301
02/16/2010,41.66,42.21,41.49,41.7,5981922
02/17/2010,41.86,41.94,41.45,41.78,4771234
02/18/2010,41.56,42.64,41.41,42.42,5529566
02/19/2010,42.21,42.73,41.81,42.56,3931454
02/22/2010,42.82,42.82,41.28,41.42,4188713
02/23/2010,41.1,41.35,40.29,40.45,4770694
02/24/2010,41.14,41.81,40.84,41.66,5972739
02/25/2010,40.77,41.97,40.45,41.93,4430225
02/26/2010,42.06,42.44,41.55,42.29,3839120
03/01/2010,42.48,42.96,42.37,42.54,4530327
03/02/2010,42.79,43.21,42.5,42.64,4207572
03/03/2010,42.92,43.31,42.62,43.05,5264897
03/04/2010,43.18,43.59,42.64,42.8,5421481
03/05/2010,43.14,43.83,42.83,43.76,6121653
03/08/2010,43.68,44.16,43.62,43.8,4970418
03/09/2010,43.4,44.64,43.4,44.1,5684377
03/10/2010,44.02,44.69,43.8,44.44,4474663
03/11/2010,44.34,44.6,43.79,43.95,5209488
03/12/2010,44.44,44.48,43.65,43.89,2324755
03/15/2010,43.76,43.84,42.88,43.55,3848859
03/16/2010,43.84,43.84,43.15,43.4,4019806
03/17/2010,43.51,43.86,42.83,43.07,6377897
03/18/2010,43.19,43.34,41.53,41.92,7017810
03/19/2010,42.19,42.43,40.62,41.23,9271295
03/22/2010,40.81,41.65,40.28,41.14,6782316
03/23/2010,41.25,42.38,41.15,42.32,6217043
03/24/2010,41.88,42.47,41.41,41.63,4500919
03/25/2010,41.95,42.23,40.07,40.21,7518994
03/26/2010,40.32,40.32,39.36,40.29,7966623
03/29/2010,41.26,41.86,41.17,41.79,6877660
03/30/2010,41.78,42.13,41.47,42,4897787
03/31/2010,42.04,42.27,41.67,41.8,7028313
04/01/2010,42.28,42.99,42.27,42.96,5155707
04/05/2010,43.24,44.12,42.99,43.95,7108141
04/06/2010,43.89,44.34,43.66,43.8,5908009
04/07/2010,45.19,47.32,44.91,46.68,18245993
04/08/2010,46.73,48.46,46.65,48.1,15501749
04/09/2010,48.26,48.65,47.06,47.11,6918827
04/12/2010,47.02,48.25,46.72,48.2,7545594
04/13/2010,48.09,48.74,47.29,48.28,7979727
04/14/2010,49.01,49.28,48.32,49.22,6085019
04/15/2010,49.25,49.96,48.95,49.72,4627378
04/16/2010,49.33,49.69,48.32,48.37,7229579
04/19/2010,47.94,48.81,47.87,48.63,5713355
04/20/2010,49.03,50.28,49.03,50.22,5984240
04/21/2010,50.12,50.53,49.74,50.35,4387463
04/22/2010,49.97,50.98,49.47,50.91,4980025
04/23/2010,50.5,51.27,50.01,51.2,5878771
04/26/2010,51.31,51.6,50.5,50.65,4615389
04/27/2010,50.46,50.9,48.79,48.9,5178667
04/28/2010,49.26,49.71,48.66,49.24,4771270
04/29/2010,49.62,50.26,49.17,50.11,4907124
04/30/2010,50.23,51.76,49.79,50.51,7788071
05/03/2010,50.8,51.74,50,51.14,6566407
05/04/2010,49.24,49.78,47.47,49.66,9265032
05/05/2010,48.63,49.06,46.95,47.38,7105189
05/06/2010,47.01,47.49,43.49,46.18,10498949
05/07/2010,45.85,47.08,44.55,45.42,8244920
05/10/2010,46.23,48.53,45.74,47.9,7066249
05/11/2010,47.27,47.47,46.76,47.18,8541135
05/12/2010,47.28,48.97,47.28,48.82,7661864
05/13/2010,48.68,49.58,48.45,48.67,5790836
05/14/2010,48.15,48.46,46.57,47.77,4440106
05/17/2010,47.8,48.31,45.46,46.48,6866185
05/18/2010,47.28,47.7,46.14,46.33,6555078
05/19/2010,46.16,46.93,44.85,45.97,5769160
05/20/2010,44.87,44.93,43.24,43.38,6192942
05/21/2010,42.5,45.33,42,45.29,9182397
05/24/2010,44.86,45.51,43.8,43.85,6279795
05/25/2010,42.1,44.55,42.07,44.48,7215367
05/26/2010,45.04,45.88,44.76,44.91,7253119
05/27/2010,45.92,48.06,45.68,48.03,8893807
05/28/2010,47.75,48.44,46.76,47.18,6978470
06/01/2010,46.65,47.28,45.3,45.42,7418441
06/02/2010,45.98,48.54,45.42,48.54,8976462
06/03/2010,48.39,49.49,47.34,49.38,8045020
06/04/2010,48.54,49.8,45.9,46.36,13916980
06/07/2010,46.63,47.82,44.75,45.52,11369643
06/08/2010,46.16,47.64,45.53,47.47,9191676
06/09/2010,47.81,48.88,46.42,46.79,7116335
06/10/2010,47.65,49.02,47.65,48.97,7666417
06/11/2010,48.63,49.49,48.16,49.46,5076955
06/14/2010,49.96,50.51,48.92,49.06,6893625
06/15/2010,49.81,50,49.01,49.69,6593858
06/16/2010,49.28,50.17,48.96,49.71,3851981
06/17/2010,49.72,50.05,48.87,49.55,5693772
06/18/2010,49.53,49.78,49.07,49.63,6680286
06/21/2010,50.43,51.29,49.32,49.78,6641998
06/22/2010,49.81,50.14,47.65,47.93,6614370
06/23/2010,47.99,48.6,47.4,48.12,5961518
06/24/2010,47.65,48.73,46.82,47.1,6178122
06/25/2010,47.84,49.52,47.11,49.24,15592090
06/28/2010,49.06,49.34,47.25,47.46,6815448
06/29/2010,46.53,46.72,44.82,45.13,9200788
06/30/2010,45.26,45.64,44.15,44.3,8204461
07/01/2010,44.36,45.02,43.13,44.57,7054953
07/02/2010,44.44,45.32,43.94,44.21,5755114
07/06/2010,45.18,46.25,44.48,44.95,5738474
07/07/2010,45.08,46.75,44.68,46.71,6046021
07/08/2010,47.23,48.09,46.72,47.84,7762080
07/09/2010,47.68,48.13,46.94,47.51,3985321
07/12/2010,47.42,48,47.14,47.52,3544602
07/13/2010,48.18,48.78,47.96,48.07,5759648
07/14/2010,47.85,48.91,47.42,48.09,4659586
07/15/2010,48.25,48.25,46.87,47.87,4702318
07/16/2010,47.4,47.59,45.6,46.12,6886092
07/19/2010,46.3,46.68,45.4,46,4839536
07/20/2010,45.31,47.12,45.1,46.98,6352192
07/21/2010,47.14,47.19,45.79,46.17,5255526
07/22/2010,46.83,47.23,46.34,46.52,4676761
07/23/2010,46.35,46.54,45.36,46.1,5161175
07/26/2010,46.09,47.09,46.09,46.73,3791494
07/27/2010,46.84,46.87,44.69,45.35,6714205
07/28/2010,45.51,45.93,45.1,45.31,3634566
07/29/2010,45.88,46.01,44.86,45.36,4043471
07/30/2010,44.91,45.54,43.81,43.98,8450604
08/02/2010,44.78,46.38,44.67,46.22,5781028
08/03/2010,46.13,46.38,45.64,45.87,4656114
08/04/2010,46.02,46.79,45.78,46.43,3544384
08/05/2010,46.11,46.4,45.6,46.2,3907949
08/06/2010,43.49,44.97,42.95,44.74,15148403
08/09/2010,45.17,45.37,44.24,45.1,5507556
08/10/2010,44.55,45.73,44.41,45.43,10605917
08/11/2010,44.46,44.73,43.62,43.81,5477809
08/12/2010,43.02,44.13,42.85,42.98,6565607
08/13/2010,42.98,43.26,42.26,42.46,8987626
08/16/2010,42.16,42.48,41.54,42.41,5850025
08/17/2010,42.87,43.11,42.29,42.89,5361783
08/18/2010,42.74,42.84,41.47,42.06,6540432
08/19/2010,41.93,42.2,41.09,41.27,6542356
08/20/2010,41.15,41.35,40.78,41.24,6246182
08/23/2010,41.32,41.92,41.21,41.37,4380955
08/24/2010,40.72,40.8,39.48,39.96,7742899
08/25/2010,39.64,39.67,38.52,39.46,8271886
08/26/2010,39.72,40.14,38.86,39.09,5061859
08/27/2010,39.44,40.41,38.69,40.32,4744004
08/30/2010,40.45,40.55,39.47,39.47,5017439
08/31/2010,39.3,39.83,38.74,39.17,6372060
09/01/2010,39.81,40.61,39.36,40.51,6865418
09/02/2010,40.62,40.62,39.88,40.32,3611015
09/03/2010,40.73,41.21,40.49,40.71,4631809
09/07/2010,40.25,40.54,39.84,40,4479518
09/08/2010,40.01,40.87,40.01,40.72,4653149
09/09/2010,41.24,41.26,39.92,40.28,3855427
09/10/2010,40.41,41.74,40.41,41.57,6542739
09/13/2010,42.01,42.01,41.33,41.6,3465934
09/14/2010,41.43,42,41.17,41.57,3406523
09/15/2010,41.37,41.56,40.91,41.28,6170387
09/16/2010,41.57,41.8,40.78,41.05,5500189
09/17/2010,41.07,41.07,39.61,40.18,15654719
09/20/2010,40.32,40.53,39.39,39.54,10416545
09/21/2010,39.68,40.7,39.35,40.42,8623786
09/22/2010,40.45,41.01,40.45,40.74,8111674
09/23/2010,40.27,40.94,39.97,40.46,4778508
09/24/2010,41.1,41.88,40.61,41.51,5949416
09/27/2010,41.61,41.93,41.12,41.18,3460189
09/28/2010,41.2,41.48,40.62,41.35,3939505
09/29/2010,41.04,42.36,40.93,42.28,6247360
09/30/2010,42.56,42.77,41.36,41.89,6475362
10/01/2010,42.44,43.56,42.38,43.35,6589522
10/04/2010,43.01,43.67,42.92,43.15,6875934
10/05/2010,43.64,44.09,43.04,43.83,4398356
10/06/2010,43.86,44.84,43.83,44.39,5246799
10/07/2010,44.65,44.68,44.02,44.42,4283573
10/08/2010,44.5,45.01,44.18,44.84,3720111
10/11/2010,44.64,45.38,44.55,44.9,2895326
10/12/2010,44.59,44.84,44.1,44.63,2861916
10/13/2010,45.04,45.27,44.42,44.59,6313246
10/14/2010,44.2,45.05,44.2,44.72,4571315
10/15/2010,45.03,45.54,44.78,45.2,6726058
10/18/2010,45.11,46.1,44.97,45.79,4940386
10/19/2010,45.07,45.21,44.51,44.88,6418748
10/20/2010,44.97,45.54,44.79,45.19,3204920
10/21/2010,45.37,45.92,44.12,44.61,4664064
10/22/2010,44.93,44.93,43.58,43.95,4324265
10/25/2010,44.28,44.68,43.87,43.99,2941226
10/26/2010,43.75,44.12,42.99,43.25,4419169
10/27/2010,42.87,43.31,42.3,43.27,3849358
10/28/2010,43.54,43.77,42.61,42.88,3172102
10/29/2010,42.69,43.37,42.52,43.29,4465964
11/01/2010,43.76,44.22,43.07,43.4,3134940
11/02/2010,43.89,44.43,43.3,44.16,4471956
11/03/2010,40.87,40.88,38.84,39.95,35093459
11/04/2010,40.54,40.54,38.98,39.84,13595957
11/05/2010,40.04,40.13,39.29,40.01,7873780
11/08/2010,40.25,41.25,40.08,40.41,10180422
11/09/2010,40.71,41.92,40.59,41.56,9609576
11/10/2010,41.74,42.5,41.58,42.42,6146360
11/11/2010,42.1,42.91,42.1,42.53,4765769
11/12/2010,42.05,42.21,41.21,41.58,5159853
11/15/2010,42.23,42.56,41.59,41.74,4575973
11/16/2010,41.29,41.29,40.47,41.11,5668176
11/17/2010,41.23,41.52,40.64,40.7,4459176
11/18/2010,40.88,41.88,40.67,41.62,5321165
11/19/2010,41.39,42.04,41.16,42,4609823
11/22/2010,41.86,42.29,41.09,41.78,2804553
11/23/2010,41.17,41.19,39.97,40.05,6442439
11/24/2010,40.33,40.67,39.99,40.57,3809364
11/26/2010,40.18,40.56,40.13,40.14,1002017
11/29/2010,40.04,40.48,39.57,40.3,3942891
11/30/2010,39.94,40.59,39.75,40.17,4880349
12/01/2010,40.87,41.43,40.45,41.37,5321055
12/02/2010,41.34,42.45,41.34,42.39,4247631
12/03/2010,42.21,42.46,41.91,42.34,3688660
12/06/2010,42.25,42.77,42.23,42.63,3240667
12/07/2010,43.16,43.39,41.75,41.84,5158638
12/08/2010,42.08,42.24,41.29,41.64,3300551
12/09/2010,41.71,42.19,41.45,41.67,4465897
12/10/2010,41.52,41.75,40.98,41,4313752
12/13/2010,41.33,41.78,40.92,40.98,4918632
12/14/2010,41.02,41.59,40.73,41.38,4056234
12/15/2010,41.26,41.64,40.58,40.65,3960914
12/16/2010,40.73,40.97,40.54,40.89,2212835
12/17/2010,40.83,41.46,40.69,41.43,5331678
12/20/2010,41.49,41.55,40.6,41.3,4458297
12/21/2010,41.43,41.76,41.14,41.39,1848913
12/22/2010,41.51,41.81,41.31,41.65,1907967
12/23/2010,40.92,41.58,40.79,41.3,5126424
12/27/2010,41.21,41.3,40.44,40.69,2855171
12/28/2010,40.88,40.94,40.61,40.65,2980264
12/29/2010,40.86,41.35,40.64,41.19,2327287
12/30/2010,41.2,41.58,41.04,41.44,2553887
12/31/2010,41.39,41.61,41.24,41.31,2200191
01/03/2011,41.76,42.23,41.67,41.71,3857933
01/04/2011,42.04,42.13,41.28,41.61,4274427
01/05/2011,41.22,42,41.03,41.72,3837544
01/06/2011,42.16,42.65,41.69,41.93,5689695
01/07/2011,42.12,42.61,41.96,42.58,5217029
01/10/2011,42.52,42.91,42.37,42.91,5540435
01/11/2011,43.11,43.75,42.81,43.68,6380087
01/12/2011,44.1,44.93,43.85,44.56,5661551
01/13/2011,44.44,44.6,43.9,44.28,3665961
01/14/2011,44.24,45.56,43.99,45.5,4816919
01/18/2011,45.61,46.69,45.39,46.56,6629122
01/19/2011,46.53,46.6,45.59,45.88,6344051
01/20/2011,45.14,45.91,44.89,45.85,5351479
01/21/2011,46.14,46.41,45.46,45.98,5285970
01/24/2011,45.85,46.2,45.51,46.04,3519408
01/25/2011,45.95,45.95,44.76,45.17,4360333
01/26/2011,45.41,46.57,45.35,46.28,5038912
01/27/2011,46.1,47.11,46.02,46.73,5410212
01/28/2011,46.76,47.57,46.22,46.34,6221862
01/31/2011,46.48,48.22,46.48,48.16,5084581
02/01/2011,48.28,48.98,47.89,48.55,4774587
02/02/2011,48.41,48.99,48.11,48.51,3292863
02/03/2011,48.36,48.51,47.78,48.43,2144352
02/04/2011,48.54,48.63,47.82,48.28,3652087
02/07/2011,48.57,49.07,47.7,47.79,3793048
02/08/2011,47.87,47.87,46.84,47.39,4677054
02/09/2011,47.18,47.65,46.49,47.02,3748897
02/10/2011,46.81,47.36,46.64,47.13,4004988
02/11/2011,46.97,47.28,46.62,46.74,3353933
02/14/2011,46.75,48.19,46.75,47.46,4595558
02/15/2011,47.41,48.04,46.67,46.85,4669280
02/16/2011,47.08,47.66,46.57,46.58,4980119
02/17/2011,46.72,47.31,46.3,47.14,6583384
02/18/2011,48.33,49.67,48.32,49.26,8339256
02/22/2011,49.7,50.5,48.9,49.01,6258730
02/23/2011,49.09,51.91,49.09,51.76,9053021
02/24/2011,51.84,52.1,49.67,49.84,7940375
02/25/2011,50.08,50.89,49.78,50.51,3569486
02/28/2011,50.71,51.23,50.46,50.83,3754483
03/01/2011,49.54,50.75,48.8,48.83,10015965
03/02/2011,47.89,49.29,47.22,49.18,16937287
03/03/2011,49.45,50.34,48.85,50.26,6468871
03/04/2011,50.13,50.48,49.03,49.47,4781154
03/07/2011,49.87,50.39,48.94,49.12,4022124
03/08/2011,49.1,49.26,47.98,48.04,3722669
03/09/2011,48.02,48.69,47.59,47.86,3461051
03/10/2011,47.29,47.29,46.33,46.54,5784949
03/11/2011,46.42,48.2,46.14,47.79,4160224
03/14/2011,47.53,48.45,47.11,48.2,4357564
03/15/2011,46.72,48.17,46.44,47.68,5352090
03/16/2011,47.86,48.64,46.63,47.27,5541472
03/17/2011,48.3,49.38,47.89,49.13,4625021
03/18/2011,49.65,49.97,48.42,48.78,6552064
03/21/2011,49.53,50.42,49.31,50.39,4880499
03/22/2011,50.82,51.77,50.67,51.26,7198972
03/23/2011,51.32,51.6,50.67,51.5,8518764
03/24/2011,51.98,52.34,51.13,52.27,6176754
03/25/2011,52.4,53.44,51.92,53.17,5694932
03/28/2011,52.83,54.16,52.63,53.58,6833255
03/29/2011,53.16,54.18,52.39,54.13,6581255
03/30/2011,54.42,54.94,53.54,53.92,7802885
03/31/2011,53.94,54.33,53.57,53.62,6265035
04/01/2011,53.91,53.97,53.3,53.54,9173751
04/04/2011,53.79,54.2,53.41,53.54,4192041
04/05/2011,53.4,53.72,52.76,52.9,4200981
04/06/2011,53.26,53.36,51.92,51.93,4376569
04/07/2011,51.81,52.33,51.05,51.84,4824369
04/08/2011,52.23,52.65,51.48,51.88,3794693
04/11/2011,51.83,52.02,50.6,50.96,3091578
04/12/2011,50.45,50.45,48.93,49.41,6129477
04/13/2011,49.88,50.83,49.67,50.1,4263940
04/14/2011,49.7,50.42,49.25,50.18,3929146
04/15/2011,50.22,50.68,49.64,50.29,3838055
04/18/2011,49.7,50.02,48.86,49.78,3811757
04/19/2011,49.79,50.01,49.15,49.6,3337259
04/20/2011,50.44,50.75,50.04,50.62,3926139
04/21/2011,50.44,50.87,50.1,50.68,2221268
04/25/2011,50.74,50.83,49.71,50.02,2135620
04/26/2011,50.17,50.64,49.83,50.61,2378361
04/27/2011,50.75,50.83,49.47,50.63,2753159
04/28/2011,50.56,51.22,49.98,50.74,3357360
04/29/2011,50.67,51.44,50.32,51.15,2880386
05/02/2011,51.41,51.56,50.05,50.27,4076513
05/03/2011,50.15,50.15,48.58,48.99,4538216
05/04/2011,48.82,48.82,47.5,48.14,4262783
05/05/2011,47.23,47.76,46.14,47.35,7551224
05/06/2011,49.39,50.45,48.08,48.68,7850101
05/09/2011,49.94,50.7,49.61,50.44,5221265
05/10/2011,50.48,50.64,49.74,50.23,3655707
05/11/2011,50.04,50.14,48.02,48.34,4787579
05/12/2011,47.78,48.44,47.18,47.81,4849612
05/13/2011,47.94,48.39,47.3,47.76,4005855
05/16/2011,47.65,48.8,47.22,47.42,3359939
05/17/2011,47.18,48.1,47.01,47.86,4308287
05/18/2011,47.97,48.69,47.8,48.3,4264521
05/19/2011,48.46,48.58,47.6,48.01,3417262
05/20/2011,48.05,48.9,47.52,48.43,4451666
05/23/2011,47.62,47.84,47.1,47.23,4287850
05/24/2011,47.64,48.52,47.5,48.06,5149109
05/25/2011,47.8,48.89,47.8,48.59,3491882
05/26/2011,48.34,48.7,47.75,48.6,2563015
05/27/2011,48.88,49.42,48.65,49,2815479
05/31/2011,49.84,49.92,48.52,49.43,3882232
06/01/2011,49.61,50.59,48.91,49.02,6966328
06/02/2011,49.12,50.61,49.12,50.25,6878442
06/03/2011,49.54,50.65,48.84,50.08,4913742
06/06/2011,50.08,50.76,49.4,49.41,5993536
06/07/2011,49.61,49.85,48.94,48.98,4696121
06/08/2011,48.98,50.23,48.98,49.36,4289095
06/09/2011,49.64,50.37,49.4,50.23,3975988
06/10/2011,49.84,50.04,48.73,48.78,4142615
06/13/2011,48.92,49.18,46.96,47.43,6167966
06/14/2011,48.14,48.47,47.4,47.6,5821767
06/15/2011,47.18,47.72,46.32,46.6,5809243
06/16/2011,46.46,46.91,45.87,46.06,6130597
06/17/2011,46.4,46.66,45.63,46.33,6451840
06/20/2011,45.99,46.17,45.4,45.72,5501468
06/21/2011,45.92,46.75,45.86,46.31,4513743
06/22/2011,46.09,46.85,45.86,45.9,6093049
06/23/2011,44.88,45.41,43.77,45.38,6264912
06/24/2011,45.34,45.49,44.43,44.53,4242903
06/27/2011,44.13,45.5,44.04,45.45,6373037
06/28/2011,45.62,46.57,45.3,46.41,4098195
06/29/2011,46.5,47.19,46.03,46.69,4048909
06/30/2011,46.91,47.49,46.77,47.34,4110279
07/01/2011,47.28,47.37,46.39,46.7,7336235
07/05/2011,46.8,47.57,46.64,46.8,3230652
07/06/2011,46.68,46.81,46.1,46.35,2744648
07/07/2011,46.97,47.12,46.41,46.9,4193794
07/08/2011,46.2,46.49,45.83,46.18,3751402
07/11/2011,45.5,45.5,44.66,44.82,3410577
07/12/2011,44.78,45.35,44.64,44.82,4190729
07/13/2011,45.16,45.87,44.73,44.91,4276671
07/14/2011,45.13,45.19,43.74,43.87,5811303
07/15/2011,45.38,46.34,45.26,45.92,14869286
07/18/2011,46.01,46.55,45.6,46.05,5362333
07/19/2011,46.29,47.32,46.29,47.23,5095790
07/20/2011,47.56,47.56,46.98,47.11,4572926
07/21/2011,47.48,48.06,47.23,47.91,4260613
07/22/2011,47.9,48.37,47.65,48.35,3605523
07/25/2011,47.74,48.76,47.56,48.18,4181625
07/26/2011,48.2,48.95,47.47,48.36,4289475
07/27/2011,48.1,48.11,47.18,47.23,4427480
07/28/2011,47.21,47.8,46.77,46.97,5166517
07/29/2011,46.37,46.9,46.06,46.29,6809783
08/01/2011,47.14,47.34,45.6,46.13,3986116
08/02/2011,45.77,46.45,44.96,44.99,4577819
08/03/2011,45.05,45.07,43.37,44.45,6733993
08/04/2011,43.79,43.79,41.5,41.81,9591449
08/05/2011,44.72,45.93,42.38,43.53,18500385
08/08/2011,42.47,42.57,39.51,40.21,12481358
08/09/2011,40.84,41.7,39.07,41.25,16167329
08/10/2011,41.12,41.33,39.33,39.47,12003827
08/11/2011,39.91,42.78,39.46,42.26,9863497
08/12/2011,43.92,44.39,42.38,42.7,7826219
08/15/2011,43.2,43.78,42.94,43.67,5495709
08/16/2011,43.12,43.43,42.25,42.91,6280582
08/17/2011,43.23,44.04,42.21,42.65,4506450
08/18/2011,41.59,41.59,39.41,39.77,8102221
08/19/2011,39.31,40.74,39.25,39.72,7055777
08/22/2011,40.8,41.07,38.96,39.18,6814171
08/23/2011,39.17,40.39,38.83,40.35,7924717
08/24/2011,40.09,40.85,39.86,40.8,5088080
08/25/2011,41.12,41.4,39.72,40.05,5475666
08/26/2011,39.81,40.91,39.03,40.73,5009095
08/29/2011,41.39,41.6,40.75,41.54,4588924
08/30/2011,41.34,42.09,40.73,41.8,3665718
08/31/2011,42.19,42.73,41.49,41.97,5943483
09/01/2011,42.35,42.73,41.43,41.49,3701175
09/02/2011,40.55,40.93,39.85,40.09,5400403
09/06/2011,38.91,39.53,38.54,39.48,5638244
09/07/2011,40.15,41.23,39.98,41.13,3917358
09/08/2011,40.7,41.73,40.28,40.5,5329659
09/09/2011,39.62,40.06,38.53,38.72,5776686
09/12/2011,38.36,39.1,38.08,39.09,4881452
09/13/2011,39.18,39.67,38.72,39.37,3404938
09/14/2011,38.96,40.32,38.62,39.81,4926330
09/15/2011,40.33,41.02,39.99,41,4301768
09/16/2011,41.35,41.41,40.5,40.91,5543822
09/19/2011,39.99,40.21,39.01,39.83,3966485
09/20/2011,40.03,40.64,39.42,39.53,4135153
09/21/2011,39.47,40.07,37.85,37.85,4897148
09/22/2011,36.68,36.72,34.09,34.86,11649397
09/23/2011,34.2,35.02,33.29,33.45,8329514
09/26/2011,34.16,34.85,33.19,34.78,8281326
09/27/2011,35.69,36.54,35.41,35.65,6908732
09/28/2011,35.73,35.76,33.64,33.71,5331708
09/29/2011,34.5,34.65,32.62,33.45,7514908
09/30/2011,32.4,33.02,31.56,32.2,8115645
10/03/2011,31.83,31.87,30.76,31.01,10801950
10/04/2011,30.56,33.59,30.32,33.45,13256901
10/05/2011,33.45,34.92,33.23,34.82,8126486
10/06/2011,34.66,35.81,34.27,35.62,6392082
10/07/2011,35.87,35.95,33.91,33.98,7136949
10/10/2011,34.87,36.05,34.82,36.03,5582014
10/11/2011,35.69,36.53,35.38,36.37,6668297
10/12/2011,36.67,37.52,36.44,36.73,4931875
10/13/2011,36.38,36.62,35.3,36.46,5206782
10/14/2011,37.32,38.23,37.15,38.18,5089849
10/17/2011,37.88,38.24,36.88,37.02,4160611
10/18/2011,37.07,39.38,36.48,39.1,8184452
10/19/2011,38.95,40.55,38.88,39.91,9306065
10/20/2011,39.79,40.03,38.69,39.71,6875416
10/21/2011,40.45,41.41,40.11,41.19,6044267
10/24/2011,41.43,41.74,41.03,41.4,6741601
10/25/2011,41.41,41.41,39.54,39.65,6633573
10/26/2011,40.46,40.59,39.26,39.74,8417772
10/27/2011,41.38,42.74,40.84,42.2,8077634
10/28/2011,41.67,43.31,41.66,43.27,6662863
10/31/2011,42.47,42.51,40.6,40.67,5976127
11/01/2011,39.1,39.56,38.14,39.09,8035029
11/02/2011,41.25,44.48,40.98,43.67,18631694
11/03/2011,44.37,45.75,43.74,45.48,9972936
11/04/2011,44.94,46.61,44.69,46.26,7674156
11/07/2011,46.14,46.56,45.35,46.01,6018371
11/08/2011,46.26,46.49,45.22,46.32,5378554
11/09/2011,45.21,45.77,44.56,44.69,6181161
11/10/2011,45.2,45.82,44.75,45.49,5141370
11/11/2011,46.02,47.31,46,47.29,5266779
11/14/2011,46.8,47.5,46.06,47.18,6086782
11/15/2011,46.98,47.25,46.38,46.56,4170484
11/16/2011,46.21,47.02,45.71,45.78,9284620
11/17/2011,45.57,46.06,43.72,44.14,5514758
11/18/2011,44.73,45.4,43.66,44.49,4892248
11/21/2011,43.52,43.95,42.76,43.66,3222661
11/22/2011,43.46,43.79,42.58,43.21,3837136
11/23/2011,42.56,42.69,41.55,41.68,5340678
11/25/2011,41.31,42.21,41.27,41.32,1309547
11/28/2011,42.74,44.01,42.68,43.47,4264954
11/29/2011,43.77,44.98,43.65,44.7,5482629
11/30/2011,46.39,47.47,46.39,47.15,7445584
12/01/2011,47.12,47.74,46.24,46.61,4096404
12/02/2011,47.19,47.29,46.43,46.6,3472407
12/05/2011,47.28,47.68,46.03,46.4,5598569
12/06/2011,46.59,48.29,46.41,47.7,4689563
12/07/2011,47.34,47.42,46.22,46.87,4554649
12/08/2011,46.62,47.55,45.53,45.75,5400694
12/09/2011,45.68,47.48,45.68,47.17,6234927
12/12/2011,46.42,46.5,45.08,45.96,4722140
12/13/2011,46.27,46.89,44.18,44.77,6373301
12/14/2011,44.1,44.13,42.34,42.35,10180954
12/15/2011,42.99,43.45,42.29,42.94,6620306
12/16/2011,43.39,44.51,43.08,44.41,7993521
12/19/2011,44.34,44.44,43.29,43.46,4086463
12/20/2011,44.49,45.1,44.26,44.55,5037268
12/21/2011,44.67,44.87,43.89,44.61,5336812
12/22/2011,44.66,44.85,44.53,44.7,6405979
12/23/2011,44.78,45.07,44.21,44.69,3420412
12/27/2011,44.74,45.35,44.6,45.03,3275775
12/28/2011,45.12,45.24,43.7,43.86,3304970
12/29/2011,43.82,44.64,43.82,44.57,2926122
12/30/2011,44.58,45.06,44.46,44.79,2816705
01/03/2012,45.75,46.44,45.65,46.1,6108802
01/04/2012,46.13,46.37,45.75,46.2,5207406
01/05/2012,45.99,46.61,45.39,46.41,5529831
01/06/2012,46.49,47.18,46.38,46.57,4926629
01/09/2012,46.59,46.86,46.15,46.46,3812763
01/10/2012,47.92,48.77,47.7,47.97,6813388
01/11/2012,47.64,47.96,46.81,46.9,4880385
01/12/2012,47.3,47.68,46.7,47.31,4861749
01/13/2012,46.75,47.11,46.19,46.93,3775270
01/17/2012,47.68,47.87,46.75,47.25,3340762
01/18/2012,47.19,48.19,46.82,47.97,3389756
01/19/2012,48.13,48.51,47.67,47.87,5839742
01/20/2012,47.76,47.8,46.65,46.97,5827948
01/23/2012,47.74,48.56,47.53,48.09,5939735
01/24/2012,47.65,47.77,47.13,47.59,4238382
01/25/2012,47.49,48.82,46.91,48.64,4749945
01/26/2012,48.86,48.95,47.47,47.72,4959053
01/27/2012,47.51,47.93,47.13,47.42,3504263
01/30/2012,46.91,48.01,46.53,47.96,4768138
01/31/2012,48.03,48.39,47.68,48.39,6057978
02/01/2012,48.7,48.72,47.67,48.23,7243674
02/02/2012,48.11,49.24,47.8,48.49,4686897
02/03/2012,49.2,50.15,48.77,49.68,4833593
02/06/2012,49.85,50.34,49.53,50.11,6733612
02/07/2012,50.07,50.78,49.66,50.62,4007781
02/08/2012,50.75,50.86,49.89,50.73,3311581
02/09/2012,50.57,51.76,50.49,51.22,4347410
02/10/2012,50.44,50.93,50.17,50.92,4044220
02/13/2012,51.25,51.75,51.09,51.64,4354313
02/14/2012,51.53,51.83,51.17,51.79,5302472
02/15/2012,52.14,52.78,51.62,52.26,6482259
02/16/2012,52.36,54.1,52.16,53.57,6882170
02/17/2012,54.22,54.63,51.68,52.11,13479226
02/21/2012,52.82,53.28,52.37,52.65,7174793
02/22/2012,52.94,53.51,52.63,52.68,6280198
02/23/2012,52.76,53.1,52.14,53.04,4378991
02/24/2012,53.13,53.77,52.91,53.52,3653222
02/27/2012,53.43,53.64,52.66,52.67,5018889
02/28/2012,52.79,53.37,52.6,53.09,5228210
02/29/2012,53.16,53.37,51.63,51.82,6982688
03/01/2012,52.2,53.28,52.03,53.24,5379122
03/02/2012,53.01,53.18,51.5,51.88,5153390
03/05/2012,51.69,51.74,50.71,51.54,3467430
03/06/2012,50.56,51.37,50.19,51.32,5630591
03/07/2012,51.36,51.76,51.02,51.55,4191001
03/08/2012,52.24,52.52,51.6,52.1,3338573
03/09/2012,52.14,52.71,51.94,52.38,2937524
03/12/2012,52.36,52.48,51.24,51.79,3089980
03/13/2012,51.85,53.25,51.47,53.21,4820331
03/14/2012,53.19,53.26,51.95,52.22,3656635
03/15/2012,52.3,52.95,51.94,52.65,4277417
03/16/2012,52.99,53.68,52.73,53.18,5904629
03/19/2012,53.12,53.72,52.88,53.46,3649193
03/20/2012,52.89,52.89,51.98,52.25,3766592
03/21/2012,52.24,52.42,51.49,51.83,3614959
03/22/2012,51.17,51.52,50.03,50.26,4849589
03/23/2012,50.31,51.3,50.16,50.89,5006110
03/26/2012,51.35,51.55,50.83,51.08,2993381
03/27/2012,51.21,51.24,50.51,50.68,3123519
03/28/2012,50.35,50.53,49.41,49.92,3793872
03/29/2012,49.41,49.76,48.79,49.64,3094067
03/30/2012,49.86,50.77,49.53,50.58,3874192
04/02/2012,50.54,52.06,50.24,51.6,4252302
04/03/2012,51.29,51.78,51.08,51.7,5093645
04/04/2012,51.03,51.18,49.96,50.33,3428508
04/05/2012,50.15,50.76,49.57,49.72,5060966
04/09/2012,48.7,49.2,48.55,48.92,5964883
04/10/2012,48.93,49.05,47.27,47.36,7203400
04/11/2012,47.9,48.05,46.68,46.86,6478485
04/12/2012,46.98,48.19,46.96,48,6868576
04/13/2012,47.77,48.03,47.03,47.17,3259505
04/16/2012,47.37,47.95,46.45,46.88,3126657
04/17/2012,47.4,48.04,47.22,47.8,4513965
04/18/2012,47.62,47.89,47.24,47.51,4174182
04/19/2012,47.58,48.03,47.12,47.43,3404047
04/20/2012,47.84,48.12,46.89,46.99,3681539
04/23/2012,45.88,47.33,45.88,47.27,4129337
04/24/2012,47.49,47.86,47.17,47.64,4893830
04/25/2012,48.07,48.58,47.71,48.55,6259543
04/26/2012,48.54,49.66,48.36,49.5,4947054
04/27/2012,49.72,49.83,49.31,49.74,4240016
04/30/2012,49.66,50.15,49.19,50.08,3295912
05/01/2012,50.31,51.2,50.08,50.73,3877787
05/02/2012,50.13,50.13,49.36,49.84,4520404
05/03/2012,49.72,50.15,48.91,49.11,4036361
05/04/2012,48.53,48.9,47.61,48.01,4736077
05/07/2012,47.65,48.28,47.11,47.8,3562535
05/08/2012,47.27,47.53,45.8,47.46,4744758
05/09/2012,47.35,48.21,45.96,47.95,8228884
05/10/2012,48.69,48.96,48.13,48.59,5797140
05/11/2012,48.11,48.6,47.4,47.54,4834616
05/14/2012,46.78,46.94,46.02,46.09,4011664
05/15/2012,46.07,46.39,44.99,45.25,4190429
05/16/2012,45.46,46.34,44.95,45.13,4349942
05/17/2012,45.12,45.3,44.32,44.41,4215487
05/18/2012,44.65,44.98,43.69,43.93,4862696
05/21/2012,44.4,45.73,44.38,45.7,4892060
05/22/2012,46.21,47.2,45.83,46.23,6109499
05/23/2012,45.74,46.43,44.6,46.39,5882221
05/24/2012,46.53,46.7,45.22,45.97,4140098
05/25/2012,45.87,46.72,45.87,46.4,3827333
05/29/2012,47.64,48.04,47.06,47.84,5053371
05/30/2012,47.14,47.14,45.57,46.07,6085165
05/31/2012,45.96,46,43.97,45.29,7920082
06/01/2012,43.73,43.85,41.66,41.81,14536809
06/04/2012,41.95,42.04,40.53,41.22,10961260
06/05/2012,40.65,42.07,40.65,41.91,6422117
06/06/2012,42.43,43.32,42.34,43.3,5989355
06/07/2012,44.05,44.43,43.06,43.54,7152940
06/08/2012,42.8,42.94,41.86,42.82,5055791
06/11/2012,43.49,43.84,41.87,41.93,4565393
06/12/2012,42.24,43.05,42.07,42.95,4198020
06/13/2012,42.78,43.44,41.97,42.28,4941100
06/14/2012,42.38,43.31,42.07,43.11,4788829
06/15/2012,43.29,44.15,42.84,44.06,6356249
06/18/2012,43.8,43.87,43.04,43.2,4905536
06/19/2012,43.65,43.94,43.14,43.77,4812455
06/20/2012,43.85,44.14,42.03,42.4,6787114
06/21/2012,42.35,42.54,39.38,39.44,13023753
06/22/2012,40,40.13,39.17,39.96,7240160
06/25/2012,39.09,39.17,38.16,38.73,6691244
06/26/2012,38.74,39.03,37.62,38.27,8052370
06/27/2012,38.43,39.31,38.35,39.09,10530723
06/28/2012,38.86,39.16,38.27,38.85,8722121
06/29/2012,40.12,41.17,39.94,41.1,10636761
07/02/2012,40.84,41.03,39.93,40.55,3681694
07/03/2012,41.05,43.33,41.05,43.28,5783832
07/05/2012,42.91,43.11,41.86,41.96,4426238
07/06/2012,40.95,41.67,40.63,41.35,3722132
07/09/2012,41.24,42.36,41.14,41.73,5160531
07/10/2012,41.72,41.95,40.48,40.75,5054287
07/11/2012,40.92,42.25,40.92,41.91,5758205
07/12/2012,41.17,41.89,40.64,41.53,6240362
07/13/2012,41.76,42.54,41.68,42.46,3988863
07/16/2012,42.24,42.88,41.72,42.61,3880298
07/17/2012,43.04,43.61,42.19,43.52,5145903
07/18/2012,43.35,44.53,43.21,44.19,5492816
07/19/2012,44.42,45.07,44.22,44.9,6603856
07/20/2012,44.54,45.38,43.99,45.35,5858936
07/23/2012,44.16,44.55,43.06,44.41,6934589
07/24/2012,44.46,44.74,43.15,43.64,4004051
07/25/2012,44.1,44.21,43.05,43.74,3246534
07/26/2012,44.48,45.05,43.99,44.52,4299681
07/27/2012,44.77,46.37,44.53,46.16,5159961
07/30/2012,46.01,46.44,44.98,45.49,3616009
07/31/2012,45.43,45.65,44.76,44.79,3276009
08/01/2012,45.21,46.24,44.35,46,4820459
08/02/2012,44.84,45.3,43.54,43.92,5304035
08/03/2012,47.29,49.7,46.68,48.78,11310627
08/06/2012,48.88,49.05,48.22,48.34,5445337
08/07/2012,48.32,50.04,48.24,49.7,5188024
08/08/2012,49.61,49.84,49.09,49.31,4048203
08/09/2012,49.14,50.64,49.09,50,4145904
08/10/2012,49.41,50.43,49.36,50.26,3259544
08/13/2012,50.68,50.68,49.73,49.95,2900349
08/14/2012,50.39,50.78,50.14,50.43,4074818
08/15/2012,50.12,50.6,49.8,50.18,3253006
08/16/2012,50.16,50.76,50,50.73,3259152
08/17/2012,50.71,50.89,50.15,50.65,2733378
08/20/2012,50.98,50.98,49.89,50.06,2750138
08/21/2012,50.4,50.66,49.48,49.7,3274538
08/22/2012,49.61,49.9,48.94,49.77,3371451
08/23/2012,49.7,49.89,48.64,48.9,3034389
08/24/2012,48.88,49.89,48.7,49.77,4657993
08/27/2012,49.8,50.25,49.43,49.9,3034593
08/28/2012,49.92,50.23,49.37,49.73,3750946
08/29/2012,49.76,49.8,49.11,49.38,2758622
08/30/2012,49.1,49.1,48.19,48.39,2704846
08/31/2012,48.89,49.63,48.49,49.5,3621387
09/04/2012,49.47,50.16,48.99,49.97,4448023
09/05/2012,49.85,50.05,49.56,49.63,3171079
09/06/2012,50.19,51.74,50.09,51.37,4354064
09/07/2012,50.7,51.77,50.6,51.59,5112060
09/10/2012,51.71,52.31,51.22,51.38,3387216
09/11/2012,51.55,51.85,51.15,51.38,3610617
09/12/2012,51.57,52.07,51,51.63,3474337
09/13/2012,51.72,53.07,51.09,52.64,4334310
09/14/2012,52.89,54.7,52.89,53.73,4154545
09/17/2012,53.66,54.03,52.96,53.19,2708744
09/18/2012,53.12,53.39,52.36,52.96,2480357
09/19/2012,52.86,52.92,51.87,51.91,2901244
09/20/2012,51.6,52.13,50.95,51.9,4495280
09/21/2012,52.36,52.44,51.75,52.07,4016275
09/24/2012,51.46,51.98,51.26,51.73,2700113
09/25/2012,51.96,52.28,51.3,51.38,3290595
09/26/2012,51.12,51.22,50.45,50.54,2830069
09/27/2012,51.07,51.99,50.95,51.73,2078818
09/28/2012,51.46,51.64,50.79,51.21,2312092
10/01/2012,51.64,52.41,51.6,52.17,3615185
10/02/2012,52.46,52.68,52.04,52.57,3785754
10/03/2012,52.48,52.55,50.64,50.76,4482280
10/04/2012,51.15,51.3,50.57,50.92,4337141
10/05/2012,50.96,51.37,50.04,50.24,3583733
10/08/2012,49.75,50.26,49.65,50.19,2414331
10/09/2012,50.23,51.09,49.94,50.75,2865624
10/10/2012,50.66,50.89,49.9,50.05,2790875
10/11/2012,50.46,50.85,50.09,50.18,2166312
10/12/2012,50.26,50.41,49.3,49.72,2714270
10/15/2012,49.73,50.61,49.32,50.45,3165012
10/16/2012,51.13,52.13,51.04,52.06,3534155
10/17/2012,52.43,52.93,51.98,52.74,3070398
10/18/2012,52.43,52.67,52.06,52.52,2325142
10/19/2012,52.42,52.84,51.52,51.74,3275706
10/22/2012,51.62,51.69,50.54,51.31,3892183
10/23/2012,50.38,50.76,49.9,50.43,4351966
10/24/2012,50.75,51.05,50.24,50.67,4034939
10/25/2012,51.29,51.46,50.76,51.46,2422384
10/26/2012,51.4,52.41,51.27,52.22,4810089
10/31/2012,52.29,53.36,52.29,53.29,4882622
11/01/2012,53.32,54.28,53.11,53.5,3915917
11/02/2012,53.9,54.24,52.49,52.73,4783792
11/05/2012,52.43,53.58,52.43,53.43,4758721
11/06/2012,56.47,56.98,55.52,55.84,8897032
11/07/2012,54.93,55.36,54.62,54.93,6521036
11/08/2012,54.87,55.28,52.96,52.99,4872119
11/09/2012,52.93,53.45,52.38,52.46,5403832
11/12/2012,52.68,52.91,51.92,52.54,2330809
11/13/2012,52.13,53.62,52.04,52.76,4192162
11/14/2012,52.81,53.05,51.72,51.89,3346531
11/15/2012,51.92,53.35,51.87,53.14,5092356
11/16/2012,53.67,53.76,52.54,53.41,5526945
11/19/2012,54.11,55.29,53.93,54.28,4232046
11/20/2012,54.19,54.26,53.35,53.74,2823378
11/21/2012,53.91,54.26,53.74,54.07,2281715
11/23/2012,54.24,54.54,53.85,54.43,1211200
11/26/2012,53.76,53.93,52.91,53.42,2625940
11/27/2012,52.88,53.12,52.38,52.67,5436711
11/28/2012,52.22,53.36,51.59,53.25,3424412
11/29/2012,53.83,54.2,53.47,53.85,3056697
11/30/2012,53.74,54.2,53.57,53.83,2874185
12/03/2012,54.12,54.51,53.61,53.65,2770586
12/04/2012,53.52,54.01,53.41,53.63,1928202
12/05/2012,53.78,54.72,53.71,54.34,3693759
12/06/2012,54.14,54.35,53.55,54.17,2450207
12/07/2012,54.33,54.33,53.52,53.7,2853697
12/10/2012,53.64,53.95,53.36,53.89,2210437
12/11/2012,54.16,54.7,54,54.34,2929280
12/12/2012,54.56,55.55,54.34,55.27,3876049
12/13/2012,55.07,55.22,54.17,54.26,4096198
12/14/2012,53.96,54.83,53.96,54.47,2612725
12/17/2012,54.65,55.37,54.37,55.36,2682701
12/18/2012,55.42,56.87,55.38,56.71,3983137
12/19/2012,56.52,56.77,56.04,56.04,3255030
12/20/2012,56.28,56.98,56.02,56.93,2899898
12/21/2012,56.03,56.83,55.78,56.56,4943915
12/24/2012,56.35,56.85,56.15,56.19,1657220
12/26/2012,56.36,56.37,55.48,55.64,2266912
12/27/2012,55.83,55.91,54.72,55.67,3215710
12/28/2012,55.18,55.35,54.24,54.29,2360953
12/31/2012,54.06,55.37,54.01,55.29,3858761
01/02/2013,56.48,56.61,55.58,56.61,3909461
01/03/2013,56.52,57.44,56.06,56.83,3074601
01/04/2013,56.86,57.79,56.73,57.58,2719540
01/07/2013,57.31,57.72,56.82,57.65,2679084
01/08/2013,57.56,57.67,56.38,56.81,3357720
01/09/2013,57.04,57.29,56.61,57.04,1877037
01/10/2013,57.44,57.73,57.01,57.73,2445666
01/11/2013,57.7,57.88,57.21,57.51,2429901
01/14/2013,57.51,57.8,56.86,57.05,1996589
01/15/2013,56.84,57.52,56.72,57.33,3521188
01/16/2013,57.16,57.52,57.01,57.46,3174975
01/17/2013,57.75,58,57.24,57.74,3740510
01/18/2013,57.91,58.25,57.39,58.1,3821870
01/22/2013,58.19,58.36,57.25,57.98,4101992
01/23/2013,57.82,58.02,57.06,57.18,2384745
01/24/2013,57.25,57.93,57.2,57.29,2886917
01/25/2013,57.46,58,57.08,57.41,2511361
01/28/2013,57.66,57.66,56.63,56.93,2796512
01/29/2013,57.14,58.3,56.84,58.17,2883208
01/30/2013,58.29,59.32,57.83,57.89,3462391
01/31/2013,57.52,57.74,57.06,57.32,3797386
02/01/2013,57.91,59.03,57.29,58.94,3527866
02/04/2013,58.52,58.57,58.03,58.35,2903374
02/05/2013,58.96,59.25,58.62,59.03,2145573
02/06/2013,58.54,59.55,58.45,59.43,1843352
02/07/2013,59.46,59.63,58.69,59.48,2488179
02/08/2013,59.65,61.14,59.65,61.09,3858205
02/11/2013,61.09,61.27,60.55,61.11,3658723
02/12/2013,61.19,61.73,60.87,61.46,3613557
02/13/2013,61.46,61.6,60.82,61.2,3432375
02/14/2013,63.34,63.34,60.97,61.08,5911672
02/15/2013,61.08,61.42,58.57,59.12,6914633
02/19/2013,59.84,60.31,59.6,60.19,3720239
02/20/2013,60.24,60.38,58.36,58.39,5319734
02/21/2013,57.86,58.24,56.63,56.82,6261436
02/22/2013,57.29,57.68,56.69,57.44,4786164
02/25/2013,57.64,58.19,55.76,55.78,5549755
02/26/2013,56.09,56.76,55.35,56.61,4206754
02/27/2013,56.43,58.27,56.27,58.17,5056948
02/28/2013,57.95,58.65,57.6,57.6,4484497
03/01/2013,57.13,57.45,56.02,56.38,6098573
03/04/2013,56.16,56.32,55.46,55.82,4011220
03/05/2013,56.41,57.31,56.11,57.16,4186685
03/06/2013,57.37,57.73,56.98,57.61,3952120
03/07/2013,57.64,58.77,57.46,58.45,2604434
03/08/2013,58.82,59.09,58.43,58.96,2566986
03/11/2013,58.82,59.29,58.4,58.96,2244579
03/12/2013,59.35,59.77,59.18,59.62,2760849
03/13/2013,59.58,60.12,59.35,59.56,2825445
03/14/2013,59.81,60.5,59.71,60.39,2881105
03/15/2013,60.26,60.89,59.77,59.91,5291226
03/18/2013,59.08,59.78,58.81,59.09,2771888
03/19/2013,59.17,59.36,58.08,58.33,2711023
03/20/2013,58.83,59.03,57.83,57.87,4098557
03/21/2013,57.42,58.14,56.76,56.78,4354713
03/22/2013,57.04,57.32,56.66,57.29,2899354
03/25/2013,57.64,58.12,56.39,56.81,3258495
03/26/2013,57.05,59.3,57,59.08,5257232
03/27/2013,58.57,58.97,57.84,58.77,4004047
03/28/2013,59.06,59.19,58.41,58.7,3265742
04/01/2013,58.7,59.05,58.04,58.89,2434649
04/02/2013,59.03,59.61,58.68,59.13,3309549
04/03/2013,59.15,59.32,57.64,57.8,3604798
04/04/2013,57.78,57.78,56.21,56.32,4999186
04/05/2013,55.46,57.23,55.35,57.17,4558314
04/08/2013,57.24,58.31,57.08,58.16,2713162
04/09/2013,58.24,59.22,57.84,58.78,2464451
04/10/2013,58.92,59.68,58.89,58.93,2927980
04/11/2013,59.13,59.43,58.54,58.79,3099975
04/12/2013,58.43,58.66,56.92,56.97,4356708
04/15/2013,56.16,56.17,53.3,53.32,6106432
04/16/2013,54.08,54.92,53.16,54.69,4810097
04/17/2013,53.89,54.1,52.08,52.68,6622586
04/18/2013,52.88,53.23,51.43,52.91,7464766
04/19/2013,53.32,53.37,51.84,52.07,4889919
04/22/2013,52.24,53.62,52.1,53.44,4663796
04/23/2013,53.66,53.88,52.91,53.7,4671523
04/24/2013,53.72,55.29,53.66,55.05,4005808
04/25/2013,55.15,56.7,54.79,55.94,4813301
04/26/2013,55.86,55.96,54.62,54.69,5014886
04/29/2013,55.31,56.33,55.03,55.97,2513486
04/30/2013,55.91,56.34,55.35,55.57,3738020
05/01/2013,55.26,55.26,54.05,54.55,3973084
05/02/2013,54.69,55.2,54.16,54.92,3141602
05/03/2013,55.83,57.01,55.72,56.83,4605472
05/06/2013,57.19,58.17,56.58,57.86,5971956
05/07/2013,61.31,63.32,61.03,62.29,11127378
05/08/2013,62.45,63.7,62.39,63.3,6856993
05/09/2013,63.71,63.8,62.21,62.44,6088113
05/10/2013,62.19,62.19,60.45,61.31,5320383
05/13/2013,61.05,61.75,60.73,61.35,3469153
05/14/2013,61.51,62.87,61.42,62.77,4130807
05/15/2013,62.57,63.18,61.53,61.81,4423449
05/16/2013,61.74,61.93,60.93,61.14,4266441
05/17/2013,61.41,62.37,61.28,62.1,5653190
05/20/2013,62.14,62.95,61.91,62.24,4371329
05/21/2013,62.33,62.55,61.53,61.64,2676146
05/22/2013,61.58,62.21,59.59,60.11,4379068
05/23/2013,59.2,60.42,58.86,60.35,3918698
05/24/2013,59.55,60.11,59.04,60.06,2548983
05/28/2013,60.8,61.16,59.45,60.19,3646043
05/29/2013,59.83,61.24,59.73,60.98,3396033
05/30/2013,60.74,61.48,60.08,60.91,2607120
05/31/2013,60.47,60.86,59.26,59.26,3635470
06/03/2013,59.64,60.65,59.54,60.48,3109474
06/04/2013,60.35,60.88,59.82,60.67,3802132
06/05/2013,60.43,60.58,58.98,59,3130028
06/06/2013,59.17,59.97,58.53,59.96,3218734
06/07/2013,60.51,61.35,60.1,61.24,2391235
06/10/2013,60.74,60.86,60.2,60.39,1595171
06/11/2013,59.35,59.82,58.86,59.28,3012054
06/12/2013,60.25,60.48,59.43,59.5,2893121
06/13/2013,59.52,61.28,59.37,61.2,3400777
06/14/2013,61.33,61.33,60.19,60.46,2878885
06/17/2013,61.14,61.66,60.66,61.2,2544987
06/18/2013,61.28,62.41,61.11,61.97,2981345
06/19/2013,61.95,63.34,61.87,62.27,3664394
06/20/2013,61.38,61.46,59.58,60.12,4323928
06/21/2013,60.71,60.77,59.02,59.85,5121552
06/24/2013,59.16,59.42,57.16,58.49,4219091
06/25/2013,59.22,60.18,58.85,59.74,3579348
06/26/2013,60.22,60.84,59.46,60.52,2702336
06/27/2013,61.12,61.54,60,60.13,3759998
06/28/2013,59.87,61.04,59.68,60.44,3622800
07/01/2013,61.41,62.62,61.16,62.11,3399990
07/02/2013,62.08,63.93,62.08,63.29,4602040
07/03/2013,63.34,63.57,62.8,63.43,1818462
07/05/2013,63.83,64.55,63.63,64.45,2470429
07/08/2013,64.95,65.42,63.81,64.12,3682029
07/09/2013,64.56,65.39,64.44,65.28,3850314
07/10/2013,65.4,65.95,65.01,65.31,3828675
07/11/2013,66.1,67.38,65.59,65.89,5722248
07/12/2013,65.68,66.45,65.14,66.42,4003893
07/15/2013,66.47,66.93,65.53,65.97,3718869
07/16/2013,66.08,66.89,66.07,66.46,4057126
07/17/2013,66.67,67.3,66.48,67.02,2981721
07/18/2013,67.3,68.15,67.2,67.58,3332964
07/19/2013,67.93,68.34,67.34,68.32,2977876
07/22/2013,68.31,68.96,67.81,68.7,3488482
07/23/2013,68.77,68.93,68.03,68.31,3508249
07/24/2013,68.53,68.55,65.8,66.25,6554643
07/25/2013,66.22,67.75,66.18,67.73,4245274
07/26/2013,67.21,67.43,66.29,66.98,3214238
07/29/2013,66.79,66.88,66.12,66.52,1740219
07/30/2013,66.67,67,65.06,66.23,3547158
07/31/2013,66.47,68.1,66.47,66.89,3695242
08/01/2013,67.82,70.28,67.82,69.91,4299155
08/02/2013,69.29,70.42,69.06,70.3,2981997
08/05/2013,70.29,71.26,69.93,70.85,3731100
08/06/2013,70.83,71.2,69.54,70.46,5138840
08/07/2013,73.98,74.21,71.37,71.8,9761700
08/08/2013,72.67,73.65,71.84,72.88,5023207
08/09/2013,72.92,73.52,72.62,73.01,3974358
08/12/2013,72.69,73.74,72.37,72.99,4080263
08/13/2013,73.08,73.15,72.05,72.72,2429063
08/14/2013,72.91,73.03,71.74,71.88,2762015
08/15/2013,71.49,72.52,70.91,71.97,2771665
08/16/2013,71.48,72.11,70.92,71.47,2708288
08/19/2013,71.48,71.75,70.11,70.17,2940499
08/20/2013,70.18,71.65,69.93,71.07,2578147
08/21/2013,70.85,70.95,69.56,69.77,2540393
08/22/2013,70.2,71.4,70.07,70.96,1583126
08/23/2013,70.96,72.06,70.57,71.97,2243947
08/26/2013,72.28,73.36,72.08,72.2,2376825
08/27/2013,71.81,72.87,71.7,71.83,2421918
08/28/2013,72.13,74.14,72.08,73.29,3804051
08/29/2013,72.95,73.22,72.01,72.2,2118046
08/30/2013,72.25,72.76,71.83,72.15,2298801
09/03/2013,73.29,73.76,72.18,72.79,2367479
09/04/2013,72.38,74,72.38,73.81,2747753
09/05/2013,74.1,74.74,73.97,74.18,2130022
09/06/2013,74.72,75.53,73.8,74.29,4082787
09/09/2013,74.92,75.38,74.53,75.2,3944403
09/10/2013,75.15,75.71,73.96,75.12,3679254
09/11/2013,75.12,76.92,74.84,76.82,3895730
09/12/2013,77,77.57,76.75,77.21,3381742
09/13/2013,77.03,77.28,76.34,76.5,2265230
09/16/2013,77,77.21,75.87,76.17,2639420
09/17/2013,76.53,77.38,76.2,77.11,2161033
09/18/2013,76.87,79.22,76.85,78.93,3061376
09/19/2013,79.1,79.42,77.83,78.45,2294101
09/20/2013,78.47,78.84,77.46,77.66,3790705
09/23/2013,77.48,78,77.26,77.64,2823902
09/24/2013,77.86,79.93,77.5,79.08,4538545
09/25/2013,79.09,79.64,78.47,78.8,3767400
09/26/2013,78.92,79.13,78.05,79.13,2088447
09/27/2013,78.7,78.9,78.04,78.47,1786123
09/30/2013,77.01,78.29,76.81,77.81,2738903
10/01/2013,77.21,79.43,77.21,79.15,2992422
10/02/2013,79,79.22,77.76,79.19,2841004
10/03/2013,79.03,79.16,78.13,78.96,2713799
10/04/2013,79.01,80.37,78.38,80.24,3285520
10/07/2013,79.42,80.07,78.71,79.44,3687020
10/08/2013,79.19,80.27,78.32,78.81,3799802
10/09/2013,79.2,79.77,77.95,78.85,4119131
10/10/2013,79.69,80.4,79.48,80.37,3273890
10/11/2013,80.12,83.17,80.09,82.26,4174581
10/14/2013,81.35,83.23,81.04,83.19,2597277
10/15/2013,82.93,83.73,82.35,82.8,3270732
10/16/2013,83.96,85.52,83.49,83.85,4931159
10/17/2013,83.62,83.92,82.49,83.45,4988337
10/18/2013,84.04,84.73,83.2,84.55,4530216
10/21/2013,84.24,85.35,84.03,84.79,2580354
10/22/2013,84.98,86.63,84.46,85.18,4256047
10/23/2013,84.25,84.25,81.21,82.09,5662797
10/24/2013,81.92,84,81.03,83.47,4389942
10/25/2013,83.64,84.7,83.41,84.37,2784372
10/28/2013,84.58,84.61,83.68,83.93,1985313
10/29/2013,84.14,85.47,83.88,85.15,3061230
10/30/2013,85.72,85.97,82.3,82.92,4174886
10/31/2013,82.81,83.23,81.3,82.11,4254958
11/01/2013,82.18,82.83,80.7,82.37,3909609
11/04/2013,83.03,84.47,82.69,84.41,2895939
11/05/2013,84.35,84.35,82.52,82.62,3835098
11/06/2013,83.64,84.15,80.95,81.27,4988493
11/07/2013,82.5,82.93,75.94,78.9,9758562
11/08/2013,78.73,79.71,78.47,78.65,5864838
11/11/2013,78.77,78.97,78.04,78.87,3511700
11/12/2013,78.54,78.71,76.28,76.88,4888252
11/13/2013,76.58,78.15,76.28,77.94,5058014
11/14/2013,78.12,78.25,77.27,78.06,3986551
11/15/2013,78.34,79.2,77.24,78.85,4637385
11/18/2013,78.9,79.23,77.05,77.56,3251122
11/19/2013,77.35,77.97,76.21,77.24,3257056
11/20/2013,77.82,78.1,76.47,76.81,3242113
11/21/2013,77.35,78.2,77.2,77.91,3325231
11/22/2013,78.31,78.4,76.99,78.25,2715266
11/25/2013,77.9,77.92,76.22,77.86,4009241
11/26/2013,77.92,78.89,77.16,77.85,3310794
11/27/2013,77.72,78.07,76.15,76.59,3428077
11/29/2013,76.61,76.88,75.54,75.91,2436667
12/02/2013,76.37,76.63,75.05,75.91,3196467
12/03/2013,75.66,76.71,74.45,76.13,4440552
12/04/2013,76.19,77.8,76.14,76.89,4063040
12/05/2013,76.07,77.17,75.53,76.09,4768088
12/06/2013,76.81,76.88,73.56,73.66,7822150
12/09/2013,74.04,74.19,71.92,72.76,8453852
12/10/2013,72.89,74.51,72.76,73.27,4246193
12/11/2013,73.07,73.22,71.78,71.89,3949471
12/12/2013,71.97,73.3,71.88,72.88,3608508
12/13/2013,72.54,73.31,72,73.16,4352032
12/16/2013,73.61,74.52,73.31,73.5,3972423
12/17/2013,73.85,73.85,72.47,73.46,3187513
12/18/2013,73.45,74.71,72.84,74.53,5759345
12/19/2013,74.38,76.33,74.16,76.07,4849577
12/20/2013,76.43,77.9,76.12,77.48,5785129
12/23/2013,77.94,78.14,76.76,77.12,2481126
12/24/2013,77.21,77.42,76.48,77.41,900624
12/26/2013,77.51,78,77.14,77.3,1628696
12/27/2013,77.36,77.97,77.15,77.83,1565722
12/30/2013,77.73,78.44,76.46,76.99,2634076
12/31/2013,76.99,77.69,76.59,77.22,1958278
01/02/2014,76.64,77.28,75.48,75.91,2687358
01/03/2014,76.26,76.67,75.37,75.69,2468283
01/06/2014,75.81,76.07,74.69,75.48,3531383
01/07/2014,75.95,76.79,75.32,76.75,3071787
01/08/2014,76.38,77.22,75.94,76.71,2537359
01/09/2014,77.02,77.7,76.13,76.83,3316697
01/10/2014,77.05,77.34,76.37,76.73,2845361
01/13/2014,77.02,77.42,74.98,75.19,2418378
01/14/2014,75.48,77.63,75.28,77.55,2912365
01/15/2014,78.05,79.81,78.03,78.47,3857408
01/16/2014,78.35,78.84,77.7,78.36,2949315
01/17/2014,78.74,79.17,77.8,77.85,3186226
01/21/2014,77.91,78.55,77.44,77.93,2979289
01/22/2014,78.39,79.36,77.96,79.1,3246954
01/23/2014,78.29,79.1,77.49,77.91,4308189
01/24/2014,77.4,77.86,76.05,76.24,5502353
01/27/2014,76.08,76.22,74.28,74.66,3451056
01/28/2014,75.25,77.15,74.75,77.01,2993587
01/29/2014,76.42,76.53,75.33,75.84,3020966
01/30/2014,76.04,77.15,75.84,76.53,2112646
01/31/2014,75.85,77.2,75.16,76.12,2429846
02/03/2014,75.82,76.86,74.39,74.52,4285845
02/04/2014,74.93,77.84,74.85,77.65,6224956
02/05/2014,77.43,78.16,76.81,77.15,4018724
02/06/2014,77.24,80.05,77.24,79.77,4861206
02/07/2014,80.5,81.47,79.75,81.25,3979873
02/10/2014,81.42,81.42,79.71,80.24,3129433
02/11/2014,80.28,81.16,79.94,80.43,3157202
02/12/2014,80.95,81.48,80.37,80.66,2418860
02/13/2014,79.95,81.41,79.5,80.81,3263911
02/14/2014,80.93,81.64,80.55,81.48,2108912
02/18/2014,82.04,83.03,81.99,82.84,3456870
02/19/2014,82.47,83.65,82.17,82.38,3438797
02/20/2014,82.47,83.86,82.06,82.92,4210500
02/21/2014,83.12,83.35,81.96,81.98,5175969
02/24/2014,82.18,83.65,81.54,83.09,6748169
02/25/2014,84.22,85.27,82.56,84.72,7109771
02/26/2014,84.57,86.78,84.23,85.87,6926753
02/27/2014,85.86,86.43,84.98,86.35,3512789
02/28/2014,86.46,88.01,86.18,87.27,4945450
03/03/2014,87.08,88.43,86.88,87.18,5322897
03/04/2014,87.73,88.86,87.67,88.27,3807281
03/05/2014,88.45,89,87.54,87.74,3604767
03/06/2014,87.84,88.53,87.2,88.02,3257069
03/07/2014,88.21,88.41,86.68,87.45,3677088
03/10/2014,87.48,87.48,86.19,87.06,2625951
03/11/2014,87.44,87.59,85.36,85.49,3751269
03/12/2014,84.57,85.87,83.67,85.23,3813189
03/13/2014,85.79,85.97,83.72,84.24,3572182
03/14/2014,84.28,85.77,84.24,85.65,2973713
03/17/2014,86.01,86.59,85.67,86.24,2464592
03/18/2014,86.32,87.75,86.21,87.13,2889984
03/19/2014,87.21,87.26,85.68,86.38,2942218
03/20/2014,86.42,87.77,85.7,87.66,3789974
03/21/2014,88.39,88.97,87.23,88,5002707
03/24/2014,88.55,88.88,86.8,87.32,3107398
03/25/2014,88.06,88.88,87.93,88.26,3501417
03/26/2014,88.69,89.96,88.39,88.49,3796217
03/27/2014,88.57,90,88.44,89.08,3178752
03/28/2014,89.57,91.58,89.41,90.81,3804293
03/31/2014,91.41,91.89,89.84,90.36,3925331
04/01/2014,91.07,92.45,90.52,91.17,3245735
04/02/2014,90.53,91.61,90.3,91.3,2766618
04/03/2014,91.5,93.5,91.44,92.68,5178131
04/04/2014,94.58,95.16,91.16,91.87,3934774
04/07/2014,91.86,92.1,89.77,90.21,3020604
04/08/2014,90.07,91.73,89.85,90.94,3098869
04/09/2014,91.14,91.35,90.27,91.14,3767510
04/10/2014,90.86,92.11,89.87,90.38,4551676
04/11/2014,89.97,91.6,89.88,90.88,4579003
04/14/2014,91.81,92.33,91.06,92.2,3350428
04/15/2014,91.89,93.79,91.79,93.26,4585055
04/16/2014,93.6,94.27,92.63,93.17,3560416
04/17/2014,93.01,94.86,93.01,94.48,3061919
04/21/2014,94.98,95.54,93.93,95.49,2254649
04/22/2014,95.25,95.25,94.18,94.41,3271326
04/23/2014,94.57,97.01,94.57,96.92,3294503
04/24/2014,97.31,97.31,95.39,95.46,3561749
04/25/2014,95.23,95.28,90.87,91.36,7228838
04/28/2014,92.18,92.24,89.04,90.43,4998484
04/29/2014,91.2,93.37,91.16,91.87,4045748
04/30/2014,91.38,91.5,89.48,90.39,6418584
05/01/2014,90.59,91.1,89.29,89.56,4155923
05/02/2014,89.75,90.62,89.3,89.52,3554880
05/05/2014,88.58,91.97,88.56,91.49,4775146
05/06/2014,94.82,98.23,93.93,95.58,8500411
05/07/2014,96.49,97.26,94.67,96.65,5678097
05/08/2014,95.95,96.44,93.73,93.84,3120157
05/09/2014,94.08,94.36,92.83,94.35,3652106
05/12/2014,94.61,95.68,94.06,95.59,2979317
05/13/2014,96.28,97.31,95.99,97,3183121
05/14/2014,97.21,97.3,95.8,95.83,2314556
05/15/2014,95.9,95.91,93.67,94.75,2450454
05/16/2014,94.61,94.89,93.47,94.53,2708349
05/19/2014,94.54,95.34,94.04,94.37,1684325
05/20/2014,94.28,94.96,93.59,93.97,1870603
05/21/2014,94.73,96.26,94.2,96.07,1633557
05/22/2014,96.19,97,95.5,95.63,2352579
05/23/2014,95.82,96.99,95.41,95.91,2519851
05/27/2014,96.33,96.82,95.7,96.61,2012530
05/28/2014,96.72,97.43,96.29,97.01,2443497
05/29/2014,97.24,98.43,96.85,98.39,2458057
05/30/2014,98.02,98.1,97.08,97.57,2168483
06/02/2014,97.72,97.77,96.8,97.22,1621631
06/03/2014,97.26,98.38,97.1,98.37,1793114
06/04/2014,98.21,98.44,97.36,98.12,1621161
06/05/2014,98.09,99.53,97.6,99.51,2124033
06/06/2014,99.74,101.05,99.65,100.82,2045848
06/09/2014,101.54,102.15,100.54,101,2234657
06/10/2014,100.9,101.23,99.99,100.25,2078607
06/11/2014,99.85,102.3,99.74,102.11,2607186
06/12/2014,102.81,104.25,102.59,102.97,3549512
06/13/2014,103.09,105.2,101.95,105.17,2781188
06/16/2014,106.27,106.27,104.25,105.18,3964817
06/17/2014,105.1,105.1,102.62,103.66,5230925
06/18/2014,103.84,105,103.06,104.72,2834619
06/19/2014,104.36,106.86,103.78,106.8,3766804
06/20/2014,107.96,109.2,107.13,108.86,5466190
06/23/2014,109.32,109.66,107.87,108.29,3161843
06/24/2014,108.08,108.33,103.53,104.24,4419774
06/25/2014,104.52,107.22,104.52,107.01,3252424
06/26/2014,106.7,106.83,105.21,106.45,2247601
06/27/2014,106.28,106.93,105.8,106.82,2341332
06/30/2014,107.07,108.09,106.86,107.76,2235828
07/01/2014,108.32,108.78,107.01,107.5,2494556
07/02/2014,107.79,108.46,106.57,107.22,2506442
07/03/2014,107.24,107.93,106.17,107.66,1634544
07/07/2014,107.36,107.46,106.46,106.74,1375931
07/08/2014,106.41,107.5,106.19,107,2298867
07/09/2014,107.09,107.58,106.25,107.53,1780413
07/10/2014,105.96,106.88,104.93,106.03,2114120
07/11/2014,106.75,106.75,104.59,104.81,2387565
07/14/2014,105.75,107.04,105.44,106.72,2750437
07/15/2014,106.1,106.76,104.01,104.76,3194877
07/16/2014,105.84,108.29,105.42,108.13,3057626
07/17/2014,108.48,109.7,106.51,106.7,2148145
07/18/2014,106.52,107.47,105.58,107.15,2528292
07/21/2014,106.99,107.51,106.3,107.27,1430895
07/22/2014,107.8,108.61,106.93,107.61,2535224
07/23/2014,107.76,107.76,106.46,107.07,3469545
07/24/2014,107.55,107.97,106.83,107.29,2505681
07/25/2014,106.72,106.98,105.63,106.02,1904322
07/28/2014,106.02,106.2,104.34,104.72,2759821
07/29/2014,104.59,106.49,104.52,105.48,2426638
07/30/2014,106.03,106.59,104.67,104.92,1670326
07/31/2014,104.19,104.42,100.99,101.05,3998170
08/01/2014,100.32,101.39,98.95,99.77,3756814
08/04/2014,100.41,103.53,99.8,103.25,2768954
08/05/2014,103.24,103.24,99.27,100.28,4676250
08/06/2014,98.83,100.19,97.54,98.41,4962603
08/07/2014,99.38,99.38,97.32,97.94,2803016
08/08/2014,97.94,99.63,97.94,99.52,2103194
08/11/2014,100.39,100.65,99.65,99.99,2483812
08/12/2014,99.62,100.18,98.19,98.52,3199280
08/13/2014,99.41,99.61,98.08,98.21,2120575
08/14/2014,99,99.01,95.63,95.96,3361193
08/15/2014,96,98.26,95.72,97.95,4405932
08/18/2014,98.48,98.72,96.64,97.33,3142367
08/19/2014,97.97,99.12,97.56,98.81,2970925
08/20/2014,98.88,99.21,97.97,99.06,2049909
08/21/2014,99.26,99.28,97.89,98.98,2028331
08/22/2014,98.42,98.65,97.52,98.13,1934767
08/25/2014,98.73,99.95,98.43,99.68,1814616
08/26/2014,100.48,102,100.18,101.02,3116049
08/27/2014,101.04,101.06,99.79,100.29,1920766
08/28/2014,100.02,100.72,99.82,100.09,1590203
08/29/2014,100.46,101.55,100.06,101.47,1635119
09/02/2014,101.11,101.43,98.87,99.45,2575805
09/03/2014,100.51,100.72,99.22,99.48,1333097
09/04/2014,99.5,99.71,96,96.61,3754572
09/05/2014,96.35,97.22,95.15,97.09,3115803
09/08/2014,96.09,96.09,93.03,93.61,5402847
09/09/2014,93.84,94.64,93.09,93.55,3391034
09/10/2014,93.19,94.31,91.72,94.17,3571359
09/11/2014,93.19,95.23,92.8,95.12,4430463
09/12/2014,94.64,94.71,93.29,93.55,3374496
09/15/2014,93.07,94.56,92.45,94.11,2863015
09/16/2014,94.49,97.78,93.95,97.17,3850524
09/17/2014,97.55,97.96,96.51,97.14,3414095
09/18/2014,97.71,97.87,96.22,96.93,2851592
09/19/2014,97.17,97.78,95.99,96.35,5931501
09/22/2014,95.86,95.9,92.86,93.93,4078722
09/23/2014,93.62,93.84,92.75,93.12,4875719
09/24/2014,93.2,94.99,91.92,94.31,4477808
09/25/2014,94.77,94.83,92.47,92.67,3445057
09/26/2014,92.68,94.56,92.53,94.04,3221217
09/29/2014,93.07,94.24,92.43,94.06,4068756
09/30/2014,94.04,94.04,89.98,91.44,6230567
10/01/2014,91.61,92.09,88.78,89.4,5706856
10/02/2014,88.42,90.16,87.05,89.61,5163742
10/03/2014,90.23,90.23,88.25,89.14,4309852
10/06/2014,89.42,89.57,87.13,87.78,4900287
10/07/2014,87.74,88.66,86.4,86.45,5407916
10/08/2014,86.16,87.43,83.84,87.29,7476224
10/09/2014,86.46,86.55,83.91,84.93,9275501
10/10/2014,84.09,84.9,81.82,82.93,9494603
10/13/2014,82.41,83.38,77.17,77.32,9149427
10/14/2014,78.85,80.22,77.1,77.42,11633990
10/15/2014,75.9,81.91,75.01,81.64,10532282
10/16/2014,78.82,85.6,78.82,84.44,9343733
10/17/2014,87.16,88.4,83.51,84.4,8135435
10/20/2014,84.78,86.17,83.98,85.81,3916249
10/21/2014,87.29,88.96,87.22,88.83,5905557
10/22/2014,89.52,89.75,85.1,85.17,7406455
10/23/2014,87.19,87.75,85.49,86.41,8593322
10/24/2014,86,86.06,83.45,85.2,5210358
10/27/2014,83.53,83.53,80.45,81.8,7121661
10/28/2014,82.17,85.04,81,84.66,5973249
10/29/2014,87.19,88.19,84.9,86.17,5555538
10/30/2014,85.65,86.31,84.22,85.32,3035874
10/31/2014,85.07,87.99,83.95,87.92,5297424
11/03/2014,87.94,89.57,85.94,86.34,6768731
11/04/2014,82.96,84.19,82.34,83.58,7850565
11/05/2014,88.36,90.18,86.56,88.89,11051813
11/06/2014,88.07,91.76,88,91.53,7261258
11/07/2014,92.26,93.98,91.85,92.11,6183923
11/10/2014,93.46,94.6,90.66,91.12,5391034
11/11/2014,91.13,91.66,89.85,91.37,3775876
11/12/2014,91.3,91.92,90.07,90.25,3048033
11/13/2014,89.29,90.15,87.41,88.68,5331296
11/14/2014,89.12,91,89.01,90.77,3695545
11/17/2014,89.75,90.1,88.57,89.14,3948612
11/18/2014,89.12,90.91,88.9,90.37,3781879
11/19/2014,91.36,91.41,89.54,90.97,3513326
11/20/2014,91.09,92.79,90.99,92.02,4366198
11/21/2014,94.83,95.33,93.71,94.17,6092219
11/24/2014,93.61,94.13,91.83,92.1,3860332
11/25/2014,92.78,92.82,89.49,89.57,5316747
11/26/2014,89.39,89.4,86.84,87.03,5181099
11/28/2014,80.64,81.82,78.82,80.23,9241535
12/01/2014,79.12,81.03,77.4,80.72,9877571
12/02/2014,80.85,84.5,80.37,83.56,9745905
12/03/2014,84.85,86.6,84.01,84.92,5954064
12/04/2014,84.89,86.04,83.91,85.57,4849685
12/05/2014,85.04,85.17,83.07,83.96,7326248
12/08/2014,82.42,82.81,80.97,81.59,8357071
12/09/2014,80.5,84.31,80.28,82.49,8045674
12/10/2014,79.92,80.73,79.14,80.33,8661211
12/11/2014,80.67,83.05,79.69,80.34,5640098
12/12/2014,78.93,81.81,78.74,79.93,6410043
12/15/2014,80.57,81.57,78.59,78.91,6881858
12/16/2014,77.46,82.7,77.46,79.09,8145746
12/17/2014,81.06,85.31,79.67,84.34,10001419
12/18/2014,86.81,87.33,82.25,85.52,8788977
12/19/2014,86.63,87.98,85.54,87.9,7425781
12/22/2014,87.16,88.47,86.67,87.96,6610785
12/23/2014,88.58,90,87.47,89.2,4107374
12/24/2014,88.46,88.49,85.59,87.02,2773051
12/26/2014,87.8,88.08,86.35,86.82,2144597
12/29/2014,87.48,88.09,86.46,87.27,3021969
12/30/2014,86.51,87.28,85.02,85.77,3220352
12/31/2014,85.09,86.55,83.97,85.2,3257974
01/02/2015,84.2,86.04,83.6,85.32,3369732
01/05/2015,83.23,83.99,79.59,80.24,6039241
01/06/2015,79.42,80.12,76.57,77.9,7793438
01/07/2015,78.81,79.32,76.53,77.41,5843329
01/08/2015,78.23,81.09,77.78,80.4,5749714
01/09/2015,80.51,81.45,79.58,80.94,3923956
01/12/2015,78.74,78.97,76.98,78.22,4626410
01/13/2015,78.62,80.18,77.76,78.71,5257163
01/14/2015,77.94,81.66,77.57,81.38,6623342
01/15/2015,82.54,82.97,80.14,80.22,4816959
01/16/2015,80.53,83.93,80.23,83.72,5374928
01/20/2015,82.59,83.23,81.13,82.83,5634579
01/21/2015,83.98,84.73,83.14,83.94,4761228
01/22/2015,84.71,84.71,82.12,83.77,4419447
01/23/2015,83.5,85.77,83.16,84.18,4441133
01/26/2015,84.57,85.65,83.57,85.59,3364788
01/27/2015,85.23,87.52,84.47,86.26,5239585
01/28/2015,85.57,85.93,81.36,81.69,5769130
01/29/2015,82.62,82.89,80.43,82.43,5161502
01/30/2015,81.73,83.5,81.02,82.55,7627084
02/02/2015,84.35,85.82,83,85.78,5551662
02/03/2015,87.81,90.74,87.74,89.27,8953593
02/04/2015,87.51,90.41,86.72,88.25,9486245
02/05/2015,88.73,90.19,88.22,89.17,5644899
02/06/2015,89.91,90.12,88.6,88.81,5215602
02/09/2015,89.6,90.14,88.79,88.94,4172434
02/10/2015,89.6,89.64,86.99,88.28,4229332
02/11/2015,86.99,87.23,85.43,86.39,6336227
02/12/2015,88.03,88.29,86.65,87.87,3918315
02/13/2015,88.94,89.9,88.3,89.83,4063116
02/17/2015,89.07,89.62,88.67,89.39,4195429
02/18/2015,87.89,89.45,87.61,88.33,4393733
02/19/2015,80.36,87.83,80.24,86.98,19286489
02/20/2015,86.3,86.64,83.5,84.44,7947818
02/23/2015,83.49,85.38,82.74,85.23,5255501
02/24/2015,86.08,86.22,84.6,84.95,4033867
02/25/2015,84.86,86.45,84.63,86.22,5836963
02/26/2015,85.11,85.52,83.07,83.56,5228506
02/27/2015,84.02,84.09,82.78,83.17,3752439
03/02/2015,83.06,83.17,81.2,83.06,4931507
03/03/2015,82.49,84.46,82.14,83.76,4341361
03/04/2015,83.62,84.31,82.09,83.89,3766681
03/05/2015,83.29,83.92,82.85,83.06,2596514
03/06/2015,82.43,83.43,81.79,82.1,3962872
03/09/2015,81.65,82.74,81.25,81.31,3108910
03/10/2015,80.54,82.11,79.86,79.92,4610570
03/11/2015,80.12,81,79.61,80.24,3863749
03/12/2015,80.7,80.83,79.37,79.44,2905608
03/13/2015,78.99,79.41,77.97,79.17,4357142
03/16/2015,78.9,81.61,78.85,81.48,4783404
03/17/2015,80.52,81.55,80.1,80.48,3707020
03/18/2015,79.8,84.7,79.73,84.04,5283423
03/19/2015,82.88,83.34,81.91,83,3484395
03/20/2015,83.32,85.23,82.91,84.14,5855604
03/23/2015,84.59,84.74,82.51,82.51,3047857
03/24/2015,82.69,83.38,82.17,82.38,2538378
03/25/2015,83.14,84.04,82.32,83.41,3424181
03/26/2015,84.82,85.22,83.67,84.69,4823470
03/27/2015,84.01,84.47,83.56,83.93,2491895
03/30/2015,84.88,85.75,84.16,85.42,3254698
03/31/2015,84.48,85.72,84.2,84.98,3496180
04/01/2015,85.33,86.54,84.42,84.54,3715272
04/02/2015,83.71,86.19,82.72,85.96,4572313
04/06/2015,86.55,88.44,86.49,87.96,4791702
04/07/2015,88.25,88.99,87.25,87.4,5084734
04/08/2015,88.08,88.61,86.96,87.18,3138404
04/09/2015,87.24,89.06,87.24,88.7,3343156
04/10/2015,88.88,89.55,88.3,89.53,2411952
04/13/2015,89.69,89.83,87.33,87.78,3024965
04/14/2015,88.84,90.04,88.54,89.58,3095330
04/15/2015,89.86,91.33,89.56,90.96,5233601
04/16/2015,90.85,91.89,90.24,90.99,3414038
04/17/2015,90.12,90.52,89.52,90.3,3004057
04/20/2015,90.25,91.95,90.25,90.74,2896345
04/21/2015,90.85,91.31,89.49,89.73,3127570
04/22/2015,90.03,91.57,89.43,90.71,2805452
04/23/2015,90.99,92.17,90.86,91.24,2532188
04/24/2015,90.92,90.98,89.07,89.83,2975282
04/27/2015,90.59,90.97,89.67,90.43,2850548
04/28/2015,90.68,91.76,90.68,91.44,3626335
04/29/2015,91.22,92.85,90.82,92.64,3748170
04/30/2015,92.87,93.28,91.46,91.88,3309027
05/01/2015,92.14,93.8,90.65,91.85,3444426
05/04/2015,92.04,94.13,91.52,92.27,7358402
05/05/2015,91.66,93.05,87.79,87.82,11297730
05/06/2015,89.35,89.95,87.75,88.33,4807502
05/07/2015,89.18,89.25,85.77,86.78,4702784
05/08/2015,87.74,87.76,85.96,86.85,4666494
05/11/2015,87.47,87.52,84.94,85.08,3737903
05/12/2015,85.22,86.92,85.17,86.76,3288880
05/13/2015,87.33,87.36,84.49,85.07,3324271
05/14/2015,85.44,85.51,84.22,84.26,3387949
05/15/2015,83.88,84.73,82.89,84.03,3179792
05/18/2015,84.11,85.48,83.49,85.27,2769295
05/19/2015,84.96,85.08,83.8,83.85,3330091
05/20/2015,84.14,84.25,83.36,84.02,3572805
05/21/2015,84.67,85.28,84.21,84.98,3909852
05/22/2015,83.95,84.87,83.65,83.83,2825327
05/26/2015,82.89,83.41,82.24,82.79,3646209
05/27/2015,82.77,83.53,82.2,82.66,2798127
05/28/2015,82.24,82.99,81.72,82.79,3565635
05/29/2015,83.04,83.14,81.97,82.37,3608757
06/01/2015,82.67,82.77,81.89,82.44,2705943
06/02/2015,82.67,83.91,81.92,83.36,3353012
06/03/2015,83.16,84.02,82.63,82.67,2040929
06/04/2015,81.94,82.77,81.06,81.16,3705109
06/05/2015,80.8,84.18,80.63,83.3,4258216
06/08/2015,83,83.55,82.31,82.76,2667679
06/09/2015,83.6,84.96,82.74,82.76,2600589
06/10/2015,83.94,84.24,83.27,83.94,2728824
06/11/2015,84.51,84.56,83.8,84.2,2197851
06/12/2015,83.73,83.98,82.77,83.16,2364212
06/15/2015,82.2,83.45,82.19,82.84,2594490
06/16/2015,82.72,83.92,82.68,83.68,2179325
06/17/2015,84.21,84.65,82.11,82.66,4776149
06/18/2015,83.36,83.7,82.23,82.45,3228887
06/19/2015,81.99,82.77,81.95,81.98,4186306
06/22/2015,82.28,82.35,81.21,81.8,2766664
06/23/2015,81.98,82.49,81.41,82.44,3366458
06/24/2015,82.23,82.72,81.82,82,3753079
06/25/2015,81.88,81.98,81.07,81.4,3658093
06/26/2015,81.35,82.37,80.87,81.81,7914717
06/29/2015,80.79,81.67,80.01,80.09,3935706
06/30/2015,80.79,81.63,80.18,81.28,3830414
07/01/2015,81.59,81.59,78.79,79.66,4488921
07/02/2015,79.82,80.52,79.48,79.53,2626222
07/06/2015,78.47,80.03,78.06,79.01,3327987
07/07/2015,79.66,80.89,77.85,80.55,4917253
07/08/2015,79.96,80.72,78.01,78.49,4315879
07/09/2015,79.86,81.12,79.11,79.22,3635544
07/10/2015,79.85,80.57,78.43,78.53,2756194
07/13/2015,78.5,78.74,77.52,78.18,3733311
07/14/2015,78.2,79.53,78.1,79.15,3072700
07/15/2015,78.73,79.31,77.28,77.48,3831139
07/16/2015,77.92,77.98,76.62,76.68,3965549
07/17/2015,76.28,76.44,74.68,74.91,5909904
07/20/2015,74.67,74.67,72.51,72.53,6907971
07/21/2015,72.66,72.93,71.59,71.96,6808956
07/22/2015,71.82,72.11,70.5,70.8,7150813
07/23/2015,70.91,71.48,70.23,71,6326853
07/24/2015,70.81,71.26,69.44,69.94,5773032
07/27/2015,68.95,69.54,67.8,68.08,5509539
07/28/2015,68.3,72.17,68.3,71.52,7878474
07/29/2015,71.19,73.52,71.19,72.35,6171013
07/30/2015,72.26,73.25,71.46,73.07,4431267
07/31/2015,72.58,72.87,71.65,71.86,3977611
08/03/2015,70.91,72.24,70.21,71.13,4974219
08/04/2015,71.72,72.37,71.05,71.45,3780494
08/05/2015,72.64,73.47,70.68,70.79,4738774
08/06/2015,70.39,72.9,70.07,72.21,6599595
08/07/2015,70.02,73.23,67.96,68.64,8333049
08/10/2015,68.55,71.17,68.51,70.97,6741570
08/11/2015,69.91,72.05,69.03,71.96,5707798
08/12/2015,71.95,74.68,71.19,74.39,8213272
08/13/2015,73.79,74.91,72.9,74.15,5666269
08/14/2015,73.98,75.26,73.33,74.38,3749166
08/17/2015,73.98,74.59,73.41,74.45,3648906
08/18/2015,74.17,74.94,73.77,74.85,3452596
08/19/2015,74.33,74.33,70.79,71.74,5970217
08/20/2015,71.67,72.99,71.29,71.42,6428550
08/21/2015,71.08,72.05,68.97,69.66,7575343
08/24/2015,65.14,68.19,63.42,64.43,9154138
08/25/2015,67.09,67.1,63.55,63.62,6459979
08/26/2015,65.33,66.1,63.65,66.05,6375770
08/27/2015,67.92,70.81,67.8,70.53,6752466
08/28/2015,70.25,73.83,70.17,71.94,6776578
08/31/2015,70.91,73.66,69.39,72.87,6469479
09/01/2015,70.81,71.95,69.96,70.74,5940416
09/02/2015,71.71,72.31,69.67,72.3,4851339
09/03/2015,72.81,74.59,71.46,72.06,5833934
09/04/2015,70.92,72.06,70.67,71.55,4546418
09/08/2015,72.19,72.75,70.21,72.24,4863982
09/09/2015,73.27,73.84,71.34,71.59,6321161
09/10/2015,72.18,72.8,70.84,72.63,4570458
09/11/2015,71.42,72.03,70.57,71.79,4291565
09/14/2015,71.79,71.79,70.76,71.13,3493129
09/15/2015,71.69,72.39,71.25,71.88,3420543
09/16/2015,72.28,74.6,72.08,74.39,3731132
09/17/2015,74.46,75.54,73.62,74.11,5174091
09/18/2015,73.38,73.69,70.65,70.97,5877960
09/21/2015,71.7,71.96,70.6,71.19,3137228
09/22/2015,70.19,71.33,69.5,69.96,3283914
09/23/2015,70.02,70.65,67.81,67.96,3743600
09/24/2015,67.27,68.6,66.51,68.15,4269715
09/25/2015,68.91,69.05,67.17,67.73,3743619
09/28/2015,66.76,67.17,64.3,64.62,4209453
09/29/2015,65.01,65.76,64.34,65.26,3586101
09/30/2015,65.93,67.87,65.76,67.73,4515601
10/01/2015,68.67,70.42,67.93,68.48,5383928
10/02/2015,67.62,72.07,66.62,71.72,5915488
10/05/2015,72.73,76.02,72.58,75.04,6879842
10/06/2015,75.11,77.91,74.95,77.1,6586699
10/07/2015,78.51,79.47,76.47,77.93,6507673
10/08/2015,77.52,81.21,77.3,80.99,6470663
10/09/2015,81.28,82.17,80.12,81.23,5672422
10/12/2015,81.07,81.89,79.03,80.05,4604616
10/13/2015,79.22,80.3,78.86,79.36,5095620
10/14/2015,79.24,80.31,79.03,79.97,3109158
10/15/2015,79.53,81.26,79.19,81.24,3562774
10/16/2015,81.81,82.05,80.71,81.6,3946807
10/19/2015,80.43,80.62,78.42,79.07,4101506
10/20/2015,78.85,79.86,78.27,79.15,3466743
10/21/2015,78.73,78.97,77.77,78.11,2779280
10/22/2015,78.91,80.34,78.66,79.99,2678083
10/23/2015,79.33,80.27,78.62,79.63,2462745
10/26/2015,79.34,79.52,77.62,77.77,3318303
10/27/2015,76.3,77.34,74.64,77.13,4742110
10/28/2015,77.37,80.34,76.78,79.06,3601969
10/29/2015,78.62,80.09,78.44,79.71,2672017
10/30/2015,79.98,80.82,78.66,80.06,2999444
11/02/2015,79.38,80.65,78.98,80.25,3363496
11/03/2015,81.02,83.47,80.44,82.43,5275620
11/04/2015,82.5,82.94,79.95,80.63,3651831
11/05/2015,80.44,82.25,79.67,80.61,3770219
11/06/2015,79.63,82.5,78.53,79.49,5047863
11/09/2015,80.13,81.28,78.78,79.6,3646584
11/10/2015,79.46,81,78.99,80.74,3655583
11/11/2015,80.51,81.95,77.56,77.68,3338889
11/12/2015,76.77,77.15,75.46,76.18,3103853
11/13/2015,76.13,77.34,75.06,76.71,2901646
11/16/2015,76.89,79.12,76.48,79.06,2682843
11/17/2015,78.59,78.61,76.39,77.38,2987268
11/18/2015,78.17,79.49,77.34,79.4,2857019
11/19/2015,78.56,78.92,76.22,77.06,2398958
11/20/2015,77.39,77.64,76.44,77.06,2688117
11/23/2015,76.79,77.74,76.51,77,2412138
11/24/2015,77.67,79.86,77.54,79.38,4030918
11/25/2015,78.54,78.91,77.57,77.88,2829775
11/27/2015,77.27,77.64,76.36,76.5,1278653
11/30/2015,76.84,78.92,76.64,77.77,3394674
12/01/2015,77.81,78.44,77.4,78.36,2268091
12/02/2015,77.7,78.37,74.98,75.4,4217682
12/03/2015,76.12,76.9,74.82,75.51,4327622
12/04/2015,73.93,75.37,73.19,75.05,4395523
12/07/2015,72.61,73.1,69.51,71.07,6006866
12/08/2015,69.67,72.61,68.93,71.9,5168316
12/09/2015,72.23,74.96,71.68,73.05,4883790
12/10/2015,72.58,74.73,72.16,72.91,4692742
12/11/2015,72.09,74.06,69.7,69.82,4716821
12/14/2015,69.33,71.82,68.73,71.67,5475561
12/15/2015,72.7,73.34,71.77,72.07,5367503
12/16/2015,72.06,72.37,70.6,70.66,4522792
12/17/2015,70.37,70.84,67.06,68.34,5785606
12/18/2015,68.24,68.87,66.58,66.62,6470272
12/21/2015,66.86,66.99,64.62,65.49,4796921
12/22/2015,65.57,66.74,64.87,65.08,4899952
12/23/2015,66.57,68.77,66,68.69,4952450
12/24/2015,68.76,68.98,67.74,68.43,1674964
12/28/2015,66.91,67.11,65.46,65.7,3686413
12/29/2015,67.02,67.44,65.78,66.27,3032737
12/30/2015,65.08,66.28,65.02,65.82,3166073
12/31/2015,65.37,66.75,65.27,66,2909625
01/04/2016,66.01,66.2,64.18,64.97,4813341
01/05/2016,65.32,65.77,63.93,65.41,3439991
01/06/2016,63.87,65.42,62.19,62.79,6255823
01/07/2016,61.46,64.34,60.78,61.03,5065832
01/08/2016,61.41,61.94,60.39,61.07,4715850
01/11/2016,61.42,61.59,58.66,59.36,5017758
01/12/2016,60.28,60.77,57.2,58.66,6720016
01/13/2016,59.29,60.45,58.52,60,7451776
01/14/2016,60.46,62.27,59.47,60.99,6644396
01/15/2016,57.97,59.85,57.04,58.87,5510959
01/19/2016,59.04,59.49,55.61,57.03,5088750
01/20/2016,55.84,56.91,53.43,56.33,10081192
01/21/2016,56.32,60.06,55.54,59.59,6879863
01/22/2016,62.11,63.09,59.6,61.71,6152211
01/25/2016,60.41,61.84,57.5,57.59,4015928
01/26/2016,58.9,61.82,58.23,61.74,6307294
01/27/2016,60.85,63.5,60.29,61.77,6350392
01/28/2016,64.72,65.24,62.3,64.16,6298439
01/29/2016,64.66,66.54,64.52,66.37,6438383
02/01/2016,64.79,65.44,63.28,64.58,4028685
02/02/2016,62.64,64.85,61.7,62.79,4876703
02/03/2016,64.2,65.69,62.05,65.67,4839582
02/04/2016,66.07,66.74,63.7,63.98,4694048
02/05/2016,63.27,63.27,61.35,62.68,4930765
02/08/2016,61.18,64.32,60.53,63.97,5829401
02/09/2016,62.83,63.54,60.15,61.35,5826014
02/10/2016,61.19,62.43,59.75,61.49,3989045
02/11/2016,59.48,61.69,58.95,61.27,4740743
02/12/2016,62.47,64.28,61.68,63.3,5299707
02/16/2016,64.29,64.59,61.93,63.47,3403134
02/17/2016,64.51,66.32,63.2,66.19,5896562
02/18/2016,66.37,66.59,64.82,64.93,3395852
02/19/2016,64.14,65.19,63.63,65.16,3303704
02/22/2016,66.88,68.03,66.02,67.49,4396496
02/23/2016,67.02,67.08,63.24,63.58,4111941
02/24/2016,62.85,65.38,62.4,64.97,3813751
