06/12/2017,225,233.7,213.9,220.5,7467
06/13/2017,228,228,219.303,220.8,3304
06/14/2017,224.1,224.1,202.995,202.995,1153
06/15/2017,209.11,277.17,209.11,267.6116,17634
06/16/2017,319.8,546,303,433.5024,56886
06/19/2017,518.99,695.88,435.2925,572.6901,59196
06/20/2017,568.8,658.2,525.303,576.864,26622
06/21/2017,582.9,600,421.8,438,23718
06/22/2017,445.5,446.1,396.303,427.5,14154
06/23/2017,422.1,444,405.3,416.4,8733
06/26/2017,416.7,432.3,366,371.7,9693
06/27/2017,375,450,330.9,345.003,42532
06/28/2017,345.6,360,326.4,346.5,4657
06/29/2017,338.7,348.9,293.1,330.762,11712
06/30/2017,327.6,336,310.5,319.2,2791
07/03/2017,322.5,325.5,289.5,301.8,4342
07/05/2017,298.8,357,279.903,330.9,15332
07/06/2017,330,331.5,291.3,291.9,6607
07/07/2017,290.7,312,289.5,294.3,7211
07/10/2017,291.513,318.3,288.654,297,8063
07/11/2017,297,353.4,284.4,350.7,33724
07/12/2017,369.57,405,336.6,386.28,41422
07/13/2017,381,389.4,348.303,351.3,13463
07/14/2017,360,367.5,341.4,349.5,4447
07/17/2017,360,367.5,315,315,7905
07/18/2017,326.1,326.1,296.178,319.5,4928
07/19/2017,319.5,325.5,303,314.4,2459
07/20/2017,312,313.2,300,305.97,2489
07/21/2017,314.4,314.4,289.5,292.5,5048
07/24/2017,289.49,301.89,284.99,285.59,3249
07/25/2017,287.1,324,287.1,303.204,18852
07/26/2017,316.2,316.5,301.8,311.1,3154
07/27/2017,309,309,259.5,273,5494
07/28/2017,278.1,278.1,244.05,264,6171
07/31/2017,312,318,288,297,23051
08/01/2017,286.8,291,267,279.6,4529
08/02/2017,279.9,286.5,258,273.9,6450
08/03/2017,270.9332,275.67,255.349,271.49,2528
08/04/2017,266.76,270,260.1,260.7,1573
08/07/2017,262.5,264,240.3,242.7,2831
08/08/2017,239.99,246.45,210.29,211.79,4786
08/09/2017,211.5,216.81,186.3,198,6366
08/10/2017,199.8,221.7,187.2,210.9,4650
08/11/2017,213.29,235.5,206.3921,215.39,2902
08/14/2017,210.3,225,210.3,219.3,3132
08/15/2017,180.6,209.85,172.5,203.1,4020
08/16/2017,190.8,230.7,189.8095,206.4,1406
08/17/2017,195.003,217.2,184.8,199.8,700
08/18/2017,203.4,205.8,183.9,191.1,1847
08/21/2017,179.69,184.74,173.99,177.29,1174
08/22/2017,172.5,183.6,172.5,183.3,882
08/23/2017,179.31,184.5,179.31,182.1,265
08/24/2017,184.5,207.9,184.5,206.7,1519
08/25/2017,210,210,181.5,187.8,896
08/28/2017,196.2,204,186,195.3,966
08/29/2017,204.6,204.6,183.579,198.9,1088
08/30/2017,181.5,192.9,181.5,192.9,408
08/31/2017,193.5,195,186.3,195,386
09/01/2017,198,198,183.3,186.6,675
09/05/2017,188.0895,201.6,184.67,189.21,1217
09/06/2017,201,210,191.7,205.5,2248
09/07/2017,210,230.1,205.968,225.9,3437
09/08/2017,228,229.2,216.3,217.5,1195
09/11/2017,230.4,234.9,221.652,223.5,939
09/12/2017,217.5,234.9,217.5,218.7,778
09/13/2017,228,228,217.5,217.5,1194
09/14/2017,225,236.1,219.6,228.3,2177
09/15/2017,223.23,233.7,210,217.5,2116
09/18/2017,204,210,181.5,184.5,2366
09/19/2017,181.8139,195.84,180.9139,188.714,3256
09/20/2017,189.9383,198.54,183.9289,188.11,759
09/21/2017,190.5,193.5,187.2,192.3,1145
09/22/2017,197.7,199.2,190.0763,191.9,1363
09/25/2017,192,194.76,186.9,190.5,678
09/26/2017,192.6,193.2,174,182.1,1394
09/27/2017,193.5,193.5,179.4,179.4,858
09/28/2017,178.49,182.88,153.5924,168.29,1462
09/29/2017,180.6,180.6,157.815,171,977
10/02/2017,183.6,195.9,176.7,180.6,1464
10/03/2017,174.6,177.18,165.6,174,511
10/04/2017,167.4114,176.82,167.1113,168.61,403
10/05/2017,169.491,170.34,158.9916,160.79,804
10/06/2017,162.6,170.1,161.1,162,266
10/09/2017,163.8,165.9,156.243,159,992
10/10/2017,158.1,158.1,137.103,150,1119
10/11/2017,145.2,148.8,123.3,129,1300
10/12/2017,141,141,117.9,120,3448
10/13/2017,119.1,123.6,108.9,117,1493
10/16/2017,117.9,120,110.1,111,932
10/17/2017,111.9,115.2,109.5,110.1,1721
10/18/2017,118.5,118.5,111,111,952
10/19/2017,111,111.15,105.351,105.951,733
10/20/2017,106.65,107.4,97.5,97.5,2523
10/23/2017,92.99,93.84,82.19,83.69,3733
10/24/2017,87.6,87.6,77.1,77.1,2551
10/25/2017,76.5,87,76.5,78.6,2237
10/26/2017,79.5,81,75.903,80.4,1911
10/27/2017,80.7,100.95,80.7,92.4,6431
10/30/2017,96.9,99,85.5,89.4,2522
10/31/2017,101.7,101.7,88.5,99.6,2489
11/01/2017,102,102.3,95.1,97.2,980
11/02/2017,98.4,98.4,85.5,85.5,1189
11/03/2017,94.2,134.4,94.2,124.2,16811
11/06/2017,139.2,142.5,121.2,123,14381
11/07/2017,212.1,342,166.8,267,277167
11/08/2017,243,262.5,189.3,192.471,26661
11/09/2017,181.8,224.7,172.5,198.003,14180
11/10/2017,205.2,205.5,182.049,198,9947
11/13/2017,197.7,199.5,176.961,188.064,7546
11/14/2017,179.7,186.51,160.203,166.8,4941
11/15/2017,162,162,150,153.3,3467
11/16/2017,160.2,162,140.4,144,4904
11/17/2017,147,147,132.3,141.9,3516
11/20/2017,135.3,136.8,126,133.8,3832
11/21/2017,132.6,140.4,121.503,125.4,10374
11/22/2017,126,134.4,120,128.811,4871
11/24/2017,130.2,133.2,124.5,130.2,2367
11/27/2017,130.5,130.5,114.381,116.4,4845
11/28/2017,116.7,120.3,105,110.7,5761
11/29/2017,118.5,123.6,84,87.288,32509
11/30/2017,65.1,70.2,62.1,66.3,118774
12/01/2017,70.5,72,65.4,69.3,28368
12/04/2017,69,72,67.5,68.1,30850
12/05/2017,73.5,78,67.5,70.5,119729
12/06/2017,73.8,88.5,69.3,82.5,137050
12/07/2017,90.3,107.7,90,96,307947
12/08/2017,99.3,103.2,85.2,94.2,77525
12/11/2017,90,97.5,84,93.6,39284
12/12/2017,91.2,93,87,87.6,18715
12/13/2017,87.59,87.87,77.9894,81.59,25978
12/14/2017,85.5,85.5,78.6,82.5,24231
12/15/2017,79.5,86.4,77.916,83.1,16844
12/18/2017,84.9089,86.37,80.41,85.21,16213
12/19/2017,84,101.4,84,95.397,62717
12/20/2017,93.9,111,90,108.6,90676
12/21/2017,105,112.5,98.4,99.3,48843
12/22/2017,103.5,123,90.3,120,62680
12/26/2017,123.3,133.8,115.8,122.325,74731
12/27/2017,121.5,128.4,108,123.9,51515
12/28/2017,120.6087,124.5,115.5084,116.8584,25889
12/29/2017,115.8084,118.4786,110.408,111.8991,22092
01/02/2018,110.1,113.13,105.171,110.7,17370
01/03/2018,106.8,121.2,106.8,118.2,24750
01/04/2018,120,120,113.1,113.7,14314
01/05/2018,114.3,123.6,112.5,115.8,19512
01/08/2018,116.7,119.1,112.5,118.83,15653
01/09/2018,118.8,118.8,112.5,113.49,15656
01/10/2018,113.4,115.5,108.6,110.7,15982
01/11/2018,115.5,115.5,109.5,111.3,8682
01/12/2018,111.91,116.43,109.514,111,14120
01/16/2018,112.5,113.7,108.3,109.746,11614
01/17/2018,111.3,111.3,93.3,104.1,16792
01/18/2018,103.5,107.1,103.2,104.4,5335
01/19/2018,105.9,108,99,105.9,11125
01/22/2018,107.4,121.5,105.348,119.7,41522
01/23/2018,123.294,130.47,122.0944,123.294,33363
01/24/2018,130.8,141.3,124.5,133.497,57615
01/25/2018,141.9,148.5,135,147.603,63979
01/26/2018,159,168.9,149.1,157.8,113637
01/29/2018,154.5,165.3,141.3,142.2,49052
01/30/2018,136.8,138,120.63,132.3,42328
01/31/2018,138,149.67,127.5,141.6,43656
02/01/2018,142.2,142.5,132.924,136.2,20288
02/02/2018,132,132.6,121.5,127.5,24783
02/05/2018,123,137.4,123,127.197,18969
02/06/2018,122.09,127.44,113.6893,121.4886,26208
02/07/2018,121.5,128.4,118.5,121.803,20485
02/08/2018,120.3,122.37,115.947,117.9,9303
02/09/2018,116.1,118.47,102,109.2,23767
02/12/2018,109.5056,117,103.5323,114,11407
02/13/2018,110.1,118.8,109.5,114.297,11607
02/14/2018,116.4,123,113.736,120,11486
02/15/2018,121.5,123.3,117.63,120.6,8625
02/16/2018,120.9,122.67,115.53,117.6,7499
02/20/2018,117,119.4,114.6,117.9,7721
02/21/2018,116.1,119.7,115.8,116.4,6206
02/22/2018,115.5,117.9,111,111.3,9850
02/23/2018,112.2,127.2,111.6,116.034,20517
02/26/2018,119.7,121.8,114.6,115.8,13294
02/27/2018,115.5,119.1,112.5,115.2,9534
02/28/2018,123,146.7,120.6,139.5,96194
03/01/2018,144.3,159.6,138.6,141.6,83069
03/02/2018,140.1,147.9,138,146.7,19070
03/05/2018,161.4,165.6,154.8,161.7,50261
03/06/2018,163.5,163.5,144.9,157.497,45367
03/07/2018,152.7,158.4,147.6,151.8,51468
03/08/2018,135.3,140.7,118.5,124.2,63884
03/09/2018,135,135,121.5,127.05,26849
03/12/2018,130.5,131.7,122.4,126.3,16909
03/13/2018,120.306,124.8,116.7176,120.6118,20320
03/14/2018,117.29,120.93,115.369,117.7323,18086
03/15/2018,116.7,122.1,116.7,120.732,15823
03/16/2018,121.5,121.5,115.5,117.3,17776
03/19/2018,114.3029,116.67,108.6028,112.5,21031
03/20/2018,111.9,114,108,113.1,12042
03/21/2018,108.6,112.5,108.6,111.9,10635
03/22/2018,110.4,111.6,104.1,108,20964
03/23/2018,106.2,107.67,97.2,100.2,24928
03/26/2018,93.9,102,93.9,97.2,10074
03/27/2018,99.6,101.7,93.9,95.4,15952
03/28/2018,94.51,98.04,87.6054,91.81,15689
03/29/2018,90.01,90.78,87.91,88.21,10457
04/02/2018,89.1,89.7,84.003,85.8,8553
04/03/2018,85.2,106.2,84.9,105,24500
04/04/2018,100.5,106.2,93,100.503,11923
04/05/2018,102.61,105.9,102.01,104.11,6058
04/06/2018,102.9,103.47,93.6,96.9,7285
04/09/2018,96.9,98.4,93.9,94.947,2913
04/10/2018,94.81,103.17,92.4084,97.2057,12720
04/11/2018,98.39,101.19,96.59,96.59,4917
04/12/2018,96.6,100.5,96.324,99.3,2970
04/13/2018,96.9,99.6,96,96.9,4582
04/16/2018,96,97.5,94.5,96.9,4578
04/17/2018,98.1,100.8,95.1,100.2,5496
04/18/2018,102,102.9,99.0087,100.21,4720
04/19/2018,100.2,114.6,100.2,108.1472,23911
04/20/2018,110.4,129,109.2,121.5,73764
04/23/2018,113.4,117.3,105.9,109.5,27340
04/24/2018,106.8,121.2,106.8,117.6,33244
04/25/2018,117.9,120,110.4,112.203,14962
04/26/2018,112.49,116.61,111.894,115.79,9615
04/27/2018,116.7,117,112.5,114.9,7727
04/30/2018,115.2,120,114.6,118.8,11196
05/01/2018,117.6,119.7,115.8,117.6,8134
05/02/2018,118.5,124.2,117.003,119.403,13267
05/03/2018,123,124.8,117.3,121.5,16698
05/04/2018,121.5,123.6,119.1,120,10970
05/07/2018,122.1,122.7,105,109.1997,26505
05/08/2018,109.2,111.9,107.4,110.1,10136
05/09/2018,108.6,114.6,102.624,105.204,19760
05/10/2018,86.4,97.5,86.4,92.397,32237
05/11/2018,94.8,96,91.5,94.2,8159
05/14/2018,119.4,120,106.5,114.9,223850
05/15/2018,108.9,112.5,103.8,104.4,26296
05/16/2018,106.2,113.7,104.7,109.179,13843
05/17/2018,110.7,110.7,101.7,102.6,12532
05/18/2018,102.6,104.22,97.851,101.1,9114
05/21/2018,103.2,105.6,99.6,99.903,9977
05/22/2018,100.2,101.64,97.8,99,5296
05/23/2018,97.5,99.9,97.5,98.7,2763
05/24/2018,101.7,103.2,98.1,98.397,6236
05/25/2018,98.4,99.3,97.8,99.273,3715
05/29/2018,98.7,98.7,95.1,96.6,5025
05/30/2018,96.3,98.7,96.3,97.647,1995
05/31/2018,95.7,98.4,94.5,95.928,4798
06/01/2018,97.8,97.8,92.4,93,8011
06/04/2018,95.1,97.2,93.9,95.1,5195
06/05/2018,94.5,96.3,93,93,4316
06/06/2018,96.9,97.5,93.3,94.8,7968
06/07/2018,98.4,98.4,93,93.9,6546
06/08/2018,94.05,95.4,92.7564,94.65,4041
06/11/2018,93,94.8,91.8,93,3996
06/12/2018,92.4,94.5,92.4,94.5,6180
06/13/2018,93.6,94.5,92.7,93.3,2702
06/14/2018,93.2962,94.5,92.0924,93.3443,4299
06/15/2018,92.39,93.69,91.79,92.69,2376
06/18/2018,92.4,93,90.3,91.8,5008
06/19/2018,92.4,92.4,88.8,90.9,5586
06/20/2018,91.8,93.6,90,90.9,4409
06/21/2018,90.31,91.14,88.5117,89.982,3695
06/22/2018,90.3,90.9,89.395,90.6,3172
06/25/2018,89.7,91.8,89.1,91.5,5089
06/26/2018,91.5,91.5,89.4,90.3,2786
06/27/2018,91.5,92.7,88.2,89.1,6991
06/28/2018,89.1,90,84.3,85.5,10325
06/29/2018,87,89.04,84.61,88.3499,4500
07/02/2018,88.5,91.68,88.203,91.2,4177
07/03/2018,86.4,90,81.6,86.4,3808
07/05/2018,85.8,87.27,81.6,81.9,8938
07/06/2018,79.8,81,72,78.6,18418
07/09/2018,75.6,80.1,75,79.5,5434
07/10/2018,77.703,78.3,74.433,74.7,7460
07/11/2018,76.2,76.2,67.8,69.3,12350
07/12/2018,71.7,72.15,66.6,67.8,9791
07/13/2018,70.19,70.53,67.19,68.0884,4812
07/16/2018,68.7,69.15,66,66.9,4768
07/17/2018,67.5,69,66.03,68.1,2826
07/18/2018,69.2943,73.47,68.694,72.894,8863
07/19/2018,75.6,92.1,75.6,79.5,39528
07/20/2018,81.6,81.6,74.1,74.4,10054
07/23/2018,75.0149,75.39,71.1141,71.444,5578
07/24/2018,71.112,72.24,69,69.31,3848
07/25/2018,69.3,72.3,68.4,70.5029,3648
07/26/2018,70.5,75.3,68.7,69.3,8141
07/27/2018,70.2,70.5,67.2,69,4045
07/30/2018,68.1,69,66.9,69,2068
07/31/2018,69.31,69.36,66.01,67.0795,5207
08/01/2018,67.5,75.9,66,69,17115
08/02/2018,69.001,69.3,67.51,68.4,2419
08/03/2018,70.2,70.2,66.6,68.7,4845
08/06/2018,69.6,69.6,66.6,68.4,3209
08/07/2018,68.11,68.61,65.4057,66.0028,8422
08/08/2018,65.988,66.66,56.6898,60.29,9962
08/09/2018,57.9,63.3,52.2,63.3,19610
08/10/2018,61.5,63,60,61.8,2665
08/13/2018,60.9,61.8,58.803,60.6,2836
08/14/2018,60,60.9,58.8,59.7,2757
08/15/2018,65.4,65.4,57.03,58.8,3784
08/16/2018,58.8,59.46,57.6029,58.8,3159
08/17/2018,56.4,58.8,56.4,58.8,992
08/20/2018,56.4,60,56.019,58.2,4998
08/21/2018,57,60,56.7,57.6,2416
08/22/2018,59.103,59.25,55.2,56.7,3157
08/23/2018,54.9,58.2,54.9,56.7,1856
08/24/2018,57.9,61.5,57,57.6,8116
08/27/2018,57.3,57.9,55.779,56.4,4784
08/28/2018,57,57.63,55.9136,57.31,2427
08/29/2018,57,60,56.7,59.358,4303
08/30/2018,60.6,65.4,58.8,60.912,8888
08/31/2018,61.8,62.25,60.6,61.5,2979
09/04/2018,61.8,61.8,57.948,59.4,1734
09/05/2018,59.7,59.7,56.7,59.1,2270
09/06/2018,59.1,60.3,57.3,58.2,1402
09/07/2018,58.5,59.1,57.3,59.1,887
09/10/2018,60.3,65.7,59.7,63,6758
09/11/2018,63,63.3,62.1,62.7,1081
09/12/2018,64.5,66,62.7,63.6,3818
09/13/2018,65.397,66,63.6,65.4,3364
09/14/2018,67.5,69.6,66.3,69.3,4403
09/17/2018,69.9,76.2,66.9,66.9,10703
09/18/2018,74.4,74.4,67.5,69,1922
09/19/2018,72,72,64.5,66.3,6107
09/20/2018,68.7,68.7,63.3,66,3016
09/21/2018,66.657,66.657,64.5,65.4,2024
09/24/2018,62.41,65.73,62.41,63.91,1752
09/25/2018,66.3,66.3,59.7,61.2,3743
09/26/2018,57.29,61.44,57.29,59.99,1460
09/27/2018,62.4,62.4,58.2,59.7,2133
09/28/2018,59.697,60,58.5,58.5,1797
10/01/2018,57.9,60.3,57.9,59.4,1590
10/02/2018,62.7,62.7,58.5,59.4,1180
10/03/2018,57.6,61.5,57.6,61.5,1405
10/04/2018,57.9,61.5,57.9,60,2343
10/05/2018,59.7117,61.5,57.91,59.41,3171
10/08/2018,59.124,60.9,57.6,57.6,2234
10/09/2018,55.8,59.4,55.8,57,4194
10/10/2018,58.2,58.8,55.5,55.8,5244
10/11/2018,55.5,57.9,55.5,57.6,3229
10/12/2018,55.2,61.5,54.9,57.9,1696
10/15/2018,57.6,59.1,56.1,56.4,1504
10/16/2018,57.3,58.2,55.8,55.986,3487
10/17/2018,56.1,57.9,56.1,56.1,1841
10/18/2018,56.1,56.4,55.2,56.397,2290
10/19/2018,55.49,56.91,55.49,56.0911,3561
10/22/2018,57,57,54.3,54.6,2749
10/23/2018,54,55.5,52.5028,53.4239,3610
10/24/2018,55.5,55.5,50.7,51,3696
10/25/2018,53.7,55.5,48.3,51,4853
10/26/2018,51.3,51.6,49.8,51,1567
10/29/2018,50.79,53.4,50.79,51.9,2206
10/30/2018,51.89,52.38,49.491,50.39,1828
10/31/2018,48.3,51,48,50.7,6935
11/01/2018,51,55.8,50.907,55.8,2701
11/02/2018,56.4,67.5,55.5,65.1,17460
11/05/2018,70.5,72,57,62.4,15981
11/06/2018,51.6,80.7,51,60.84,43729
11/07/2018,61.8,62.4,55.8,56.295,9053
11/08/2018,51.3,62.1,51.3,61.5,7697
11/09/2018,60,62.55,55.458,62.4,5039
11/12/2018,62.0912,63.24,57.59,58.49,3403
11/13/2018,57.9,60.6,57.6,60,2948
11/14/2018,60,63,57.9,58.641,1249
11/15/2018,57.9028,61.5,57.6,59.7,2652
11/16/2018,59.7,60.3,55.5,58.2,2822
11/19/2018,60,60,54.3,54.3,3587
11/20/2018,55.5,55.5,53.4,53.7,2131
11/21/2018,55.19,55.2,53.39,54.29,2275
11/23/2018,54.6,55.2,52.8,55.2,647
11/26/2018,55.5,57.57,52.8,57.249,7283
11/27/2018,56.712,56.79,53.1112,56.11,1704
11/28/2018,55.81,57.33,53.41,56.046,1019
11/29/2018,56.1,56.7,55.2,55.5,1208
11/30/2018,54.3,55.35,53.7,54.531,1695
12/03/2018,57,57,53.1,53.706,1614
12/04/2018,54.6,55.2,53.1,53.1,1254
12/06/2018,53.1,53.7,52.8,53.073,841
12/07/2018,53.667,53.7,52.5,53.043,949
12/10/2018,52.5,54.6,51,51.3,1837
12/11/2018,54,54,51.3,51.351,1647
12/12/2018,52.464,55.5,48.3,54.6,8383
12/13/2018,54.6,54.9,52.5,54.6,1944
12/14/2018,54.6,56.1,54.3,54.9,2254
12/17/2018,55.5,55.5,51.6,52.5,3116
12/18/2018,50.1,55.5,50.1,52.5,1920
12/19/2018,53.7,53.7,50.1,52.2,953
12/20/2018,51.3,51.9,48.9,49.269,1706
12/21/2018,50.16,50.16,45,45,6399
12/24/2018,46.5,48,46.5,47.7,4558
12/26/2018,47.1,48,44.1,45,3200
12/27/2018,44.4,47.7,43.5,47.01,2609
12/28/2018,48,48,43.5,43.5,4642
12/31/2018,41.7,45.3,41.7,44.4,4214
01/02/2019,43.2,46.5,43.2,46.5,1471
01/03/2019,46.5,46.8,45,45.6,891
01/04/2019,45.6178,46.29,44.41,45.9119,1039
01/07/2019,47.1308,51.96,46.6449,48.89,2600
01/08/2019,50.382,51,41.931,45.048,5170
01/09/2019,47.7,48,45.3,47.4,1969
01/10/2019,48.666,48.9,45,47.1,2192
01/11/2019,46.5,48.3,46.431,48.3,583
01/14/2019,48.3,48.3,46.8,47.7,441
01/15/2019,47.535,49.8,47.4,49.2,2166
01/16/2019,49.5,53.1,49.254,52.5,4260
01/17/2019,53.1,53.43,49.5002,50.7452,3227
01/18/2019,50.7,52.5,50.1,52.2,670
01/22/2019,52.2,52.2,49.8,50.1,1394
01/23/2019,50.46,52.2,48,48,2204
01/24/2019,48.264,49.8,47.913,48.9,417
01/25/2019,50.4,50.4,48.9,50.1,687
01/28/2019,50.4,50.4,46.5,49.8,1419
01/29/2019,50.1,50.4,48.9,50.397,1042
01/30/2019,50.1,51.9,49.11,51,991
01/31/2019,51.9,51.9,50.403,51.9,1164
02/01/2019,51,51,50.1,50.4,1124
02/04/2019,51.6,52.5,50.4,51.6,1212
02/05/2019,50.4,52.5,50.4,51.9,1329
02/06/2019,51.9,52.5,50.7,52.2,901
02/07/2019,52.5,54,50.952,51,3455
02/08/2019,42.9,42.9,39.6,39.9,20716
02/11/2019,42,42.9,39,40.2,4625
02/12/2019,39.9,40.2,37.5,39,8857
02/13/2019,39.6,39.6,38.7,38.7,2186
02/14/2019,39,39,38.1,38.1,1989
02/15/2019,38.13,39,38.1,38.7,3479
02/19/2019,40.5,40.5,39,40.2,2986
02/20/2019,39.6,41.1,38.1,38.4,2624
02/21/2019,49.8,49.8,37.5,38.1,1647
02/22/2019,38.7,40.2,37.8,38.652,3752
02/25/2019,37.8,38.7,37.5,37.77,4564
02/26/2019,37.5,38.4,35.1,35.4,12984
02/27/2019,35.199,37.2,34.5,37.2,3571
02/28/2019,36.9,37.2,35.823,36.3,1438
03/01/2019,37.8,37.8,36.42,37.5,2350
03/04/2019,37.8,39,36.9,37.8,2113
03/05/2019,38.41,39,37.5928,38.41,1387
03/06/2019,38.7,39,36.3,36.561,1762
03/07/2019,38.41,38.52,34.9794,36,4874
03/08/2019,42,45,37.8,39.207,10255
03/11/2019,42,42,37.5,38.214,2553
03/12/2019,38.1,39.87,36,38.4,4698
03/13/2019,39,39,37.5,38.478,3343
03/14/2019,38.1,39.9,37.773,38.4,2889
03/15/2019,37.8,39.9,37.5,38.4,2278
03/18/2019,39.438,40.2,37.5,37.8,6932
03/19/2019,39,39,37.2,38.1,5224
03/20/2019,37.8,38.7,37.2,37.761,2131
03/21/2019,38.1,39.3,37.233,37.8,2157
03/22/2019,37.21,38.52,37.21,38.11,2223
03/25/2019,38.4,38.7,35.223,37.5,3981
03/26/2019,37.5,37.5,35.85,36,2218
03/27/2019,37.2,37.2,35.1,35.4,3147
03/28/2019,36.3,36.9,35.403,36,1467
03/29/2019,36,36.9,35.4,36.6,1395
04/01/2019,36,36.9,35.1,36,4027
04/02/2019,34.8,36,34.5,35.1,4977
04/03/2019,34.5,36.12,34.5,35.1,3507
04/04/2019,34.8,36,34.8,35.7,1850
04/05/2019,35.7,36,35.097,35.7,726
04/08/2019,35.4,39.3,35.097,36.483,9635
04/09/2019,36.01,37.62,35.1056,36.91,1543
04/10/2019,36.321,37.2,35.406,36,1332
04/11/2019,36.9,36.9,35.4,35.91,2152
04/12/2019,36,36.3,35.4,35.562,741
04/15/2019,35.1,36,35.1,35.4,1899
04/16/2019,34.5,37.5,34.5,35.7,7713
04/17/2019,36,36.9,35.7,35.7,3824
04/18/2019,36.3,37.2,35.703,36.297,1882
04/22/2019,36,36.9,36,36.6,707
04/23/2019,36.528,37.2,36.003,36.603,1359
04/24/2019,36.9,36.9,36.24,36.9,947
04/25/2019,36.3,36.9,35.703,35.79,2224
04/26/2019,35.4,36.9,35.4,36.3,1549
04/29/2019,36,36.9,35.7,36,1585
04/30/2019,35.7,36.6,35.1,35.4,2032
05/01/2019,37.2,37.2,35.4,36.483,9475
05/02/2019,37.5,38.7,36,38.4,4068
05/03/2019,38.1,39,36.6,37.503,3022
05/06/2019,36.6085,38.82,36.6085,38.11,1669
05/07/2019,37.2,37.8,36.3,36.6,2256
05/08/2019,36.91,37.32,35.71,37.1369,2572
05/09/2019,37.5,37.8,35.7,37.2,4173
05/10/2019,36,37.53,35.9971,36.9,3547
05/13/2019,36,36.9,33,36.3,6052
05/14/2019,35.1,35.4,33.3,33.3,5390
05/15/2019,33.3,33.6,29.7,31.5,11310
05/16/2019,32.1,32.13,30.3,30.9,2403
05/17/2019,31.8,31.8,27.003,27.903,9049
05/20/2019,27.91,29.58,27.0082,29.11,2622
05/21/2019,29.1,29.7,27.6,29.67,2089
05/22/2019,30,30,27.438,28.35,1475
05/23/2019,28.497,28.8,26.706,27.297,2065
05/24/2019,26.706,27.3,24.603,27.3,3506
05/28/2019,26.502,27,26.061,26.703,880
05/29/2019,26.7,27.15,26.1,26.7,1378
05/30/2019,27.96,27.96,25.79,27.318,1103
05/31/2019,27.33,28.5,26.703,27.882,2475
06/03/2019,27,27.93,25.9399,26.5403,1688
06/04/2019,27.6,27.6,25.92,26.997,406
06/05/2019,26.7,28.5,26.7,26.9968,1535
06/06/2019,26.52,26.91,25.497,25.5,1042
06/07/2019,25.5,26.7,24.9,25.14,962
06/10/2019,26.1,26.1,24,25.8,3749
06/11/2019,22.8113,24.27,22.6672,23.3305,2418
06/12/2019,24,24,22.8,22.8029,2570
06/13/2019,23.4,23.49,22.5001,22.5001,1560
06/14/2019,22.2057,23.43,22.2057,23.11,815
06/17/2019,24,27.3,23.7,24.303,4325
06/18/2019,26.4,26.4,24.477,25.365,1354
06/19/2019,27,27,24.6,25.5,1280
06/20/2019,24.3,26.4,24.3,25.962,3264
06/21/2019,26.4,26.9939,25.3741,25.8061,1087
06/24/2019,25.1971,25.5,24.5972,24.8042,718
06/25/2019,24.9,25.5,24.6,25.218,272
06/26/2019,24.723,25.95,22.5,22.791,1852
06/27/2019,22.5,23.7,21.9,22.2,1784
06/28/2019,21.9,23.4,21,22.488,2726
07/01/2019,21.31,22.32,21.3086,21.8968,1473
07/02/2019,22.392,22.5,21.48,21.993,319
07/03/2019,21.108,21.9,19.8,21.294,365
07/05/2019,21.31,22.5,20.4082,22.5,437
07/08/2019,22.5,22.5,21,21.31,322
07/09/2019,22.197,22.2,21.45,21.45,238
07/10/2019,22.2,22.5,21,22.497,600
07/11/2019,22.4616,24.12,22.4616,22.941,706
07/12/2019,23.07,23.4,22.26,22.572,934
07/15/2019,21.6,23.1,21.6,22.8,534
07/16/2019,23.4,24.9,22.293,24.6,2546
07/17/2019,24.9,25.2,22.2,22.2,4201
07/18/2019,23.1,23.4,22.2,23.1,268
07/19/2019,22.53,23.1,22.2,23.1,338
07/22/2019,23.1,23.4,21.033,21.528,1658
07/23/2019,21.708,22.86,21.6,22.503,2106
07/24/2019,22.503,22.8,22.5,22.587,413
07/25/2019,22.8,22.8,21,21.945,1298
07/26/2019,22.2,22.8,22.17,22.209,693
07/29/2019,22.2,22.8,22.2,22.794,445
07/30/2019,21.9,23.7,21.9,23.7,1904
07/31/2019,23.7,27,23.697,25.32,8456
08/01/2019,25.3559,26.4,25.2,25.8,1193
08/02/2019,26.1,29.4,24.9,25.5,2153
08/05/2019,24.6,25.5,22.89,24.6,2614
08/06/2019,25.5,25.5,23.514,24.297,279
08/07/2019,24.3,24.3,23.037,23.46,1966
08/08/2019,23.037,25.5,23.037,25.5,2076
08/09/2019,24,24,22.8,23.283,1755
08/12/2019,24.6,24.72,22.5,22.776,714
08/13/2019,22.5,24,22.5,22.662,567
08/14/2019,22.8,22.8,21.3,21.345,978
08/15/2019,22.5,22.5,20.7,21.291,2241
08/16/2019,21.408,22.38,18.363,20.1,1280
08/19/2019,20.805,21.6,20.706,20.985,892
08/20/2019,20.7,22.2,20.7,21.3,591
08/21/2019,30.6,35.4,23.418,25.653,412460
08/22/2019,23.7,25.5,23.4,25.2,16222
08/23/2019,23.4999,25.44,23.389,24.5164,6402
08/26/2019,24.6,25.11,21.603,21.744,5330
08/27/2019,23.1,23.1,22.5,22.698,2081
08/28/2019,22.5,24.9,22.5,22.806,4950
08/29/2019,22.5,23.7,22.5,23.403,1632
08/30/2019,25.2,25.2,23.55,23.55,1283
09/03/2019,24.36,24.36,23.4,24,1314
09/04/2019,23.898,24,22.83,22.947,1004
09/05/2019,23.4,23.4,22.323,22.41,2009
09/06/2019,22.4489,22.95,22.4489,22.593,585
09/09/2019,22.49,23.13,20.3951,20.8899,4873
09/10/2019,21,22.5,21,22.5,1646
09/11/2019,22.5,24,22.203,23.253,1551
09/12/2019,23.9914,25.8,22.79,22.8757,8291
09/13/2019,24.9,24.9,23.997,24.012,1444
09/16/2019,24.0293,25.23,22.8166,23.41,1528
09/17/2019,22.5748,23.97,22.5748,22.8119,2326
09/18/2019,22.5092,23.7,22.5092,23.625,595
09/19/2019,22.5358,23.43,22.4608,23.283,1103
09/20/2019,23.385,23.67,21.9,23.667,1509
09/23/2019,23.664,24.6,22.506,23.076,1432
09/24/2019,22.794,23.4,22.5,22.872,2310
09/25/2019,23.166,23.4,21.6,21.8998,1480
09/26/2019,21.61,23.1,21.61,22.0887,1915
09/27/2019,21.9,22.8,21.756,22.335,332
09/30/2019,21.9,21.9,18.309,18.597,6766
10/01/2019,18.9,20.1,17.4,18.183,1846
10/02/2019,18.3,18.3,18,18.207,3287
10/03/2019,18.039,18.3,16.5,16.8,3037
10/04/2019,17.328,18.6,17.328,18.306,2879
10/07/2019,18.9,18.9,17.703,18,1290
10/08/2019,18,18.39,17.6489,17.7,576
10/09/2019,17.4089,17.7,16.8087,17.7,705
10/10/2019,17.67,19.5,17.535,18.3,486
10/11/2019,18.6,19.5,18.315,18.321,633
10/14/2019,18.9,19.2,18.9,19.2,356
10/15/2019,19.053,19.2,17.7478,18.2969,1825
10/16/2019,19.2,19.2,18.3,18.9,383
10/17/2019,19.2,19.2,18,18.3,369
10/18/2019,18,20.94,18,20.0878,8385
10/21/2019,18.61,20.07,17.7136,18.5271,1805
10/22/2019,18,20.43,17.7004,18.6003,2843
10/23/2019,18.6,18.9,18.3031,18.774,441
10/24/2019,18.9,19.2,18.5159,18.9,547
10/25/2019,18.69,19.2,18,18.3,1841
10/28/2019,18.9,19.5,17.7,18.327,4124
10/29/2019,18.363,18.6,16.6197,17.8889,1718
10/30/2019,17.71,19.2,17.71,18.1587,956
10/31/2019,18.15,18.9,18.15,18.597,811
11/01/2019,19.14,19.14,18.3115,18.9119,857
11/04/2019,19.134,19.5,19.134,19.437,1613
11/05/2019,19.2,19.35,18.6,18.9,624
11/06/2019,18.9,19.5,18.8789,19.488,1116
11/07/2019,19.5,19.5,19.095,19.428,1990
11/08/2019,19.4252,20.22,19.19,20.169,2062
11/11/2019,20.4,21.3,20.4,20.4,1810
11/12/2019,20.4,21.3,18.3,20.598,2682
11/13/2019,16.608,17.1,15.453,16.119,7687
11/14/2019,15.6146,16.2,13.0387,15.6146,5296
11/15/2019,16.5,16.5,14.7284,15.2719,1937
11/18/2019,15.6,16.2,15.273,15.894,414
11/19/2019,15.87,16.2,15.6,16.2,1402
11/20/2019,15.6029,16.2,15.0028,16.2,853
11/21/2019,15,15.9,15,15.3,829
11/22/2019,15,16.2,15,15.61,888
11/25/2019,15.6,16.5,15.6,15.606,1489
11/26/2019,15.61,16.2,15.0083,15.2995,3434
11/27/2019,15,15.6,14.373,14.664,2651
11/29/2019,15.4105,15.9,15.3054,15.61,662
12/02/2019,15.81,15.81,14.6359,14.9752,1410
12/03/2019,14.988,15.3,14.7,14.7,1910
12/04/2019,15,15,13.5,14.94,4046
12/05/2019,13.8,15,13.8,15,2452
12/06/2019,14.1,15,14.1,14.826,1008
12/09/2019,14.7,14.7,13.8,13.803,1622
12/10/2019,13.8,14.7,13.8,14.1,2391
12/11/2019,14.85,14.85,13.95,14.1,1868
12/12/2019,14.1,14.1,13.797,13.797,2439
12/13/2019,13.905,14.34,13.8,14.163,901
12/16/2019,14.8813,15.69,13.9403,15.6329,8830
12/17/2019,12,15,11.4,11.952,14417
12/18/2019,11.7,12,9.3,9.807,21448
12/19/2019,9,9.6,9,9.432,9039
12/20/2019,9.84,9.84,9,9.15,7571
12/23/2019,9.0026,10.5,8.492,10.143,20482
12/24/2019,8.91,9.6,7.8,8.997,14763
12/26/2019,8.4,9.24,8.4,9.0059,21307
12/27/2019,8.71,10.5,8.562,9.3163,13578
12/30/2019,10.5,10.5,8.406,9,6137
12/31/2019,8.1,9.6,8.1,9.339,4309
01/02/2020,9.057,9.57,8.55,8.7,12064
01/03/2020,9,9.3,8.1,8.874,27234
01/06/2020,8.7,10.5,8.7,9.675,55037
01/07/2020,11.1,11.1,9.3895,10.3378,25281
01/08/2020,9.9,10.8,9.315,10.8,30341
01/09/2020,11.0992,12.72,9.6466,10.1058,44023
01/10/2020,10.2,10.95,9.303,9.9,13676
01/13/2020,10.2,10.2,9.387,9.6,7528
01/14/2020,9.453,9.75,8.997,9.42,5932
01/15/2020,9.1408,9.75,9.0028,9.1888,4039
01/16/2020,9.2519,9.6,9.1649,9.441,4104
01/17/2020,9.3,10.08,9.21,9.69,7243
01/21/2020,10.17,10.17,9.0123,9.2073,8746
01/22/2020,9.21,9.87,9.18,9.483,3429
01/23/2020,9.483,9.75,9.483,9.606,4302
01/24/2020,9.9,9.9,9.6,9.615,2792
01/27/2020,9.6,9.6,9.2971,9.4021,4124
01/28/2020,9.72,9.72,9.033,9.387,2556
01/29/2020,9.3149,9.57,9,9.0749,6543
01/30/2020,9.075,9.21,8.0996,8.7028,18285
01/31/2020,7.51,7.85,6.36,6.4549,22938
02/03/2020,6.25,6.3,5.55,6.05,51738
02/04/2020,7.4,35,7.1857,13.4499,3568448
02/05/2020,30,40,20.28,24.95,3210103
02/06/2020,36,36,22.05,24.01,1451564
02/07/2020,19.26,22.4,15.2701,15.79,634658
02/10/2020,12.68,15.23,11.31,11.675,775172
02/11/2020,6.3,6.58,6.2,6.32,3292333
02/12/2020,6.02,6.4,6,6.0198,798323
02/13/2020,5.9,6.31,5.6801,6.09,478249
02/14/2020,6.02,6.13,5.65,5.66,393350
02/18/2020,5.79,5.87,5.28,5.42,306775
02/19/2020,6.65,8.89,6.5,7.82,14693445
02/20/2020,7.47,7.99,6.75,7.03,1547562
02/21/2020,6.77,7.26,6.76,6.88,393372
02/24/2020,6.8,6.9,5.872,6.26,497851
02/25/2020,6.41,6.5,5.7069,5.75,378151
02/26/2020,5.73,6.05,5.46,5.51,283011
02/27/2020,5.27,5.375,4.81,4.97,415749
02/28/2020,5.1,5.1,4.56,4.75,231673
03/02/2020,4.71,5.19,4.4,4.82,243806
03/03/2020,4.7,4.97,4.47,4.5495,172107
03/04/2020,4.7,5.39,4.5,4.99,508363
03/05/2020,4.87,5.57,4.78,5.2,417537
03/06/2020,5.1,5.31,4.75,5.02,235135
03/09/2020,4.55,4.7137,4.5,4.5,98707
03/10/2020,4.72,4.87,4.04,4.17,148271
03/11/2020,4.26,4.75,4.0505,4.57,190435
03/12/2020,3.82,4.4,3.8,4.31,156690
03/13/2020,4.02,4.29,3.5,3.665,245025
03/16/2020,3.51,3.54,3.2,3.2038,140963
03/17/2020,3.16,3.358,3.11,3.31,131718
03/18/2020,3.09,3.39,2.82,3,158840
03/19/2020,3,3.44,2.97,3.44,78829
03/20/2020,3.35,3.795,3.35,3.58,70337
03/23/2020,3.53,3.6199,3.2,3.44,53585
03/24/2020,3.73,3.98,3.488,3.56,36376
03/25/2020,3.41,3.9,3.41,3.716,70240
03/26/2020,3.65,3.9,3.6386,3.7,59512
03/27/2020,3.57,4.19,3.57,3.93,90745
03/30/2020,3.8,3.9067,3.5,3.68,43834
03/31/2020,3.81,3.89,3.51,3.57,26909
04/01/2020,3.51,3.61,3.35,3.35,47330
04/02/2020,3.35,3.65,3.12,3.36,40481
04/03/2020,3.43,3.6,3.21,3.285,40134
04/06/2020,3.49,3.7498,3.3101,3.62,76026
04/07/2020,3.6596,3.72,3.5,3.72,43401
04/08/2020,4.55,5.59,4.03,4.06,4391318
04/09/2020,4.08,4.2042,3.59,3.91,274125
04/13/2020,3.9,4.01,3.68,3.89,58897
04/14/2020,3.89,4.1,3.75,3.92,132916
04/15/2020,3.93,4.05,3.6701,3.9,132491
04/16/2020,3.9,3.99,3.81,3.86,42856
04/17/2020,3.99,3.99,3.77,3.9156,54462
04/20/2020,3.9,4.13,3.82,3.92,115386
04/21/2020,3.86,4.03,3.85,4.03,67858
04/22/2020,4.01,4.11,3.85,3.96,42260
04/23/2020,4,4.05,3.92,3.992,59865
04/24/2020,3.99,4.05,3.9001,3.99,65221
04/27/2020,3.97,4.0709,3.95,4.03,71702
04/28/2020,4.07,4.08,3.95,4.06,52520
04/29/2020,4.1,4.34,4.05,4.19,354748
04/30/2020,4.3,4.5,4.02,4.04,408709
05/01/2020,5.27,5.8,4.44,4.68,7794277
05/04/2020,4.4,4.71,4.24,4.68,328331
05/05/2020,4.65,4.65,4.209,4.345,352271
05/06/2020,4.4,4.4399,4.19,4.28,135696
05/07/2020,4.26,4.41,4.18,4.31,99795
05/08/2020,4.29,4.49,4.21,4.36,78487
05/11/2020,4.36,4.7199,4.325,4.58,219289
05/12/2020,4.75,4.75,4.41,4.42,150358
05/13/2020,4.36,4.69,4.33,4.37,147238
05/14/2020,4.28,4.6,4.24,4.33,232088
05/15/2020,3.57,4.04,3.57,3.74,342386
05/18/2020,3.76,3.92,3.7401,3.78,92254
05/19/2020,3.75,4,3.67,3.85,169702
05/20/2020,3.85,3.9575,3.73,3.8063,116306
05/21/2020,3.81,3.87,3.74,3.83,73363
05/22/2020,3.79,3.85,3.74,3.84,54812
05/26/2020,3.88,3.9016,3.7,3.71,112756
05/27/2020,4.09,4.17,3.66,3.83,214153
05/28/2020,3.83,3.9,3.73,3.75,39266
05/29/2020,3.74,3.78,3.625,3.75,85832
06/01/2020,3.78,3.84,3.7,3.785,48875
06/02/2020,3.79,3.83,3.7,3.73,48963
06/03/2020,3.67,3.8,3.67,3.68,66295
06/04/2020,3.69,4.075,3.69,3.8,291141
06/05/2020,3.9,3.9,3.76,3.76,104140
06/08/2020,3.77,3.92,3.75,3.89,140642
06/09/2020,3.91,3.94,3.68,3.8,201376
06/10/2020,3.86,3.87,3.65,3.74,182908
06/11/2020,3.75,3.75,3.42,3.46,172464
06/12/2020,3.53,3.64,3.5,3.58,195680
06/15/2020,3.7,3.9,3.5,3.69,610850
06/16/2020,3.74,3.77,3.6,3.66,159834
06/17/2020,3.65,3.85,3.56,3.765,190428
06/18/2020,3.81,3.89,3.74,3.8503,135706
06/19/2020,3.8,3.89,3.75,3.79,64043
06/22/2020,3.88,3.93,3.7605,3.85,147918
06/23/2020,3.9,3.92,3.76,3.8,77940
06/24/2020,3.78,3.84,3.58,3.75,76374
06/25/2020,3.73,4.19,3.73,3.85,693793
06/26/2020,3.89,3.89,3.64,3.68,116319
06/29/2020,3.75,3.75,3.6301,3.66,54984
06/30/2020,3.63,3.74,3.63,3.7,83437
07/01/2020,3.67,3.71,3.59,3.64,94990
07/02/2020,3.65,3.69,3.58,3.63,110542
07/06/2020,4.6,4.7,3.77,3.88,3690013
07/07/2020,3.8,3.9073,3.5101,3.6459,411929
07/08/2020,3.71,3.75,3.62,3.67,123086
07/09/2020,3.81,3.83,3.6303,3.67,679633
07/10/2020,3.66,3.75,3.62,3.67,206498
07/13/2020,3.64,3.69,3.51,3.53,220389
07/14/2020,3.52,3.59,3.51,3.54,107428
07/15/2020,3.55,3.69,3.55,3.62,114730
07/16/2020,3.6,3.71,3.58,3.6999,99195
07/17/2020,3.72,4.17,3.69,3.79,239001
07/20/2020,3.79,3.88,3.7001,3.85,144750
07/21/2020,3.85,3.981,3.77,3.86,119050
07/22/2020,3.81,4.53,3.78,4.355,1319496
07/23/2020,4.23,4.23,3.94,4.065,298953
07/24/2020,3.99,4.05,3.855,4,83393
07/27/2020,3.98,4.0072,3.82,3.88,137945
07/28/2020,3.85,3.985,3.83,3.86,72149
07/29/2020,3.86,3.9,3.76,3.79,87978
07/30/2020,3.71,3.83,3.56,3.83,138972
07/31/2020,3.75,3.83,3.69,3.745,69469
08/03/2020,3.77,3.8022,3.7,3.765,64697
08/04/2020,3.75,3.89,3.75,3.85,53059
08/05/2020,3.86,4.09,3.8334,4,117620
08/06/2020,4,4.08,3.86,3.9,128624
08/07/2020,3.89,3.9345,3.82,3.88,93918
08/10/2020,3.9,4.01,3.8,3.8,234953
08/11/2020,4.09,4.3,3.83,3.9,485220
08/12/2020,3.93,3.93,3.73,3.89,60240
08/13/2020,3.86,3.9333,3.83,3.92,107830
08/14/2020,3.9,4.08,3.851,3.93,256670
08/17/2020,3.95,4.02,3.9,4.02,145361
08/18/2020,4,4,3.9,3.9,53011
08/19/2020,3.88,3.9104,3.81,3.85,72290
08/20/2020,4.05,4.2,3.73,3.82,1360364
08/21/2020,3.8,3.85,3.65,3.6582,306002
08/24/2020,3.76,3.761,3.56,3.59,207658
08/25/2020,3.6,3.74,3.5575,3.65,163386
08/26/2020,3.68,3.9,3.57,3.82,295399
08/27/2020,3.78,3.82,3.68,3.82,79481
08/28/2020,3.82,3.89,3.76,3.83,174639
08/31/2020,3.78,3.84,3.74,3.78,35994
09/01/2020,3.82,3.82,3.61,3.7,112799
09/02/2020,3.69,3.83,3.6197,3.8,74553
09/03/2020,3.74,3.7894,3.62,3.67,152001
09/04/2020,3.68,3.79,3.46,3.54,201287
09/08/2020,3.52,3.64,3.4694,3.64,59319
09/09/2020,3.62,3.728,3.62,3.702,64669
09/10/2020,3.7,3.77,3.68,3.6984,72385
09/11/2020,3.72,3.77,3.68,3.68,62854
09/14/2020,3.68,3.77,3.68,3.75,45534
09/15/2020,3.75,3.95,3.7,3.8382,4613402
09/16/2020,5.11,5.67,4.8101,4.99,43717866
09/17/2020,4.8,5.4,4.54,5.33,2325922
09/18/2020,5.27,5.27,4.93,5.02,847943
09/21/2020,4.83,4.879,4.32,4.43,606369
09/22/2020,4.4,4.52,4.31,4.51,272793
09/23/2020,4.55,4.73,4.25,4.29,334236
09/24/2020,4.22,4.5,4.12,4.45,351039
09/25/2020,4.38,4.6749,4.3239,4.59,180218
09/28/2020,4.56,4.65,4.46,4.48,108763
09/29/2020,4.53,4.6806,4.45,4.515,123794
09/30/2020,4.45,4.58,4.41,4.52,139704
10/01/2020,4.42,4.6,4.383,4.59,62554
10/02/2020,4.41,4.5639,4.4001,4.475,90375
10/05/2020,4.5,4.6151,4.45,4.52,146556
10/06/2020,4.5,4.649,4.35,4.51,153848
10/07/2020,4.52,4.8,4.48,4.64,169799
10/08/2020,4.64,4.78,4.64,4.71,107108
10/09/2020,4.75,4.8203,4.635,4.65,42359
10/12/2020,4.61,4.7,4.54,4.59,45594
10/13/2020,4.54,4.5939,4.52,4.56,53383
10/14/2020,4.52,4.5819,4.4579,4.51,73531
10/15/2020,4.4,4.53,4.4,4.53,56861
10/16/2020,4.48,4.54,4.41,4.48,126624
10/19/2020,4.46,4.95,4.4377,4.55,529970
10/20/2020,4.47,4.73,4.46,4.49,193006
10/21/2020,4.5,4.74,4.4778,4.52,194769
10/22/2020,4.5366,4.65,4.5,4.55,60756
10/23/2020,4.6,4.6,4.5,4.56,55569
10/26/2020,4.58,4.58,4.4,4.51,211279
10/27/2020,4.4833,4.54,4.41,4.41,77130
10/28/2020,4.4,4.65,4.3,4.6,139647
10/29/2020,4.55,4.5627,4.36,4.4799,110949
10/30/2020,4.41,4.41,4.32,4.34,91434
11/02/2020,4.4,4.47,4.34,4.47,50406
11/03/2020,4.46,4.53,4.4055,4.465,18455
11/04/2020,4.43,4.5,4.42,4.5,18785
11/05/2020,4.51,4.61,4.44,4.56,55065
11/06/2020,4.6,4.69,4.53,4.61,54547
11/09/2020,4.7,4.75,4.5845,4.75,98148
11/10/2020,4.76,4.88,4.7,4.84,553144
11/11/2020,5.68,6.87,5.2,5.78,6596619
11/12/2020,5.4,5.57,5.015,5.115,357737
11/13/2020,5.11,5.35,5.11,5.35,154646
11/16/2020,5.37,5.3899,5.05,5.13,114610
11/17/2020,5.1,5.35,5.03,5.32,99191
11/18/2020,5.27,5.75,5.25,5.36,412307
11/19/2020,5.31,5.6338,5.3092,5.5,159124
11/20/2020,5.62,5.8,5.42,5.696,263263
11/23/2020,5.85,7.27,5.85,6.97,1069150
11/24/2020,7.1,7.86,6.91,7.86,587101
11/25/2020,7.72,7.72,7.01,7.34,277564
11/27/2020,7.33,7.4133,7.18,7.18,57527
11/30/2020,7.08,7.47,7.08,7.375,81164
12/01/2020,7.46,7.7943,7.33,7.485,89148
12/02/2020,7.75,7.75,7.24,7.53,84300
12/03/2020,7.64,7.64,7.09,7.39,110479
12/04/2020,7.43,7.44,6.5,6.8,282016
12/07/2020,6.73,6.79,6.5,6.66,50902
12/08/2020,6.62,6.9654,6.53,6.85,129477
12/09/2020,6.97,6.97,6.51,6.55,94821
12/10/2020,6.59,6.74,6.43,6.55,190782
12/11/2020,6.6,6.6,6.2,6.5,215458
12/14/2020,6.55,7,6.4,6.73,276042
12/15/2020,6.96,7,6.52,6.74,242874
12/16/2020,6.85,6.97,6.5706,6.72,162079
12/17/2020,6.81,7.35,6.7673,7.295,134979
12/18/2020,7.28,7.66,7.2,7.2,154996
12/21/2020,7.18,7.2216,6.76,6.76,179177
12/22/2020,6.99,7.1999,6.71,6.985,238188
12/23/2020,6.98,7.23,6.88,7.12,105446
12/24/2020,7.2,7.34,6.81,6.94,525200
12/28/2020,7.12,7.19,6.721,6.865,87053
12/29/2020,6.9,6.99,6.56,6.59,165213
12/30/2020,6.62,6.74,6.45,6.46,91722
12/31/2020,6.44,6.86,6.36,6.7,86600
