01/03/2005,23.52,23.54,23.1,23.14,1425747
01/04/2005,23.14,23.14,22.55,22.6,1727969
01/05/2005,22.63,22.86,22.34,22.35,2012761
01/06/2005,22.32,22.72,22.24,22.67,1990116
01/07/2005,22.64,22.93,22.63,22.74,2467393
01/10/2005,22.74,22.92,22.54,22.68,1605461
01/11/2005,22.69,22.69,22.28,22.5,1948610
01/12/2005,22.46,22.76,22.29,22.75,1759998
01/13/2005,22.76,22.91,22.6,22.69,2686587
01/14/2005,22.69,22.81,22.58,22.78,1320076
01/18/2005,22.75,22.86,22.49,22.84,1435053
01/19/2005,22.89,23.03,22.8,22.91,1504706
01/20/2005,22.91,23.02,22.73,22.89,2746964
01/21/2005,23.04,23.15,22.97,23.04,2621554
01/24/2005,23.12,23.21,22.93,22.95,1864712
01/25/2005,23.06,23.43,23.06,23.25,2798937
01/26/2005,23.41,23.43,23.28,23.38,1668447
01/27/2005,23.41,23.47,23.27,23.41,2123080
01/28/2005,23.43,23.48,23.13,23.37,1555231
01/31/2005,23.51,23.69,23.48,23.68,2335883
02/01/2005,23.69,23.85,23.64,23.82,2357653
02/02/2005,23.87,23.98,23.73,23.96,3055702
02/03/2005,23.98,23.98,23.76,23.92,2060371
02/04/2005,23.93,24.23,23.93,24.23,2301518
02/07/2005,24.23,24.44,24.2,24.39,2002602
02/08/2005,24.32,24.51,24.23,24.48,3060225
02/09/2005,24.44,24.44,24.12,24.25,2474363
02/10/2005,24.25,24.54,24.25,24.45,1662931
02/11/2005,24.4,24.79,24.3,24.59,1975023
02/14/2005,24.56,24.62,24.44,24.59,1321524
02/15/2005,24.63,24.85,24.55,24.8,1742191
02/16/2005,24.61,24.85,24.5,24.76,2413452
02/17/2005,24.89,24.96,24.75,24.75,1464910
02/18/2005,24.78,24.89,24.69,24.79,1520876
02/22/2005,24.56,24.74,24.36,24.36,2071051
02/23/2005,24.55,24.83,24.46,24.82,1463862
02/24/2005,24.78,24.96,24.66,24.93,1944394
02/25/2005,24.94,25.33,24.87,25.29,2614578
02/28/2005,25.29,25.29,24.8,24.94,3183211
03/01/2005,25.08,25.28,25.05,25.15,1939494
03/02/2005,25.09,25.14,24.84,24.95,1774474
03/03/2005,24.99,25.2,24.9,25.07,1758601
03/04/2005,25.3,25.6,25.29,25.51,2191638
03/07/2005,25.43,25.55,25.33,25.46,2158174
03/08/2005,25.47,25.67,25.46,25.57,2272712
03/09/2005,25.63,25.9,25.53,25.55,2235779
03/10/2005,25.53,25.61,24.98,25.36,2106826
03/11/2005,25.47,25.65,25.25,25.31,1778515
03/14/2005,25.4,25.59,25.23,25.41,2155573
03/15/2005,25.5,25.57,25.32,25.32,1848615
03/16/2005,25.31,25.31,24.68,24.89,4041220
03/17/2005,24.9,25.16,24.72,25.03,2459372
03/18/2005,25.03,25.14,24.79,24.87,4187768
03/21/2005,24.89,24.91,24.49,24.76,2641117
03/22/2005,24.78,25.16,24.69,24.78,1980747
03/23/2005,24.7,24.73,24.41,24.44,2850571
03/24/2005,24.44,24.67,24.37,24.53,2514770
03/28/2005,24.51,24.7,24.43,24.51,1640023
03/29/2005,24.48,24.74,24.09,24.09,2687575
03/30/2005,24.26,24.66,24.23,24.61,2495433
03/31/2005,24.68,24.87,24.64,24.77,1804187
04/01/2005,24.88,24.99,24.39,24.41,3478933
04/04/2005,24.44,24.63,24.35,24.57,2855483
04/05/2005,24.55,24.65,24.46,24.61,2689873
04/06/2005,24.71,24.85,24.67,24.75,1687635
04/07/2005,24.77,24.9,24.64,24.86,1300177
04/08/2005,24.85,24.88,24.29,24.29,2819412
04/11/2005,24.33,24.33,23.69,23.99,4435010
04/12/2005,23.92,24.25,23.64,24.22,3252746
04/13/2005,24.25,24.25,23.56,23.66,2306756
04/14/2005,23.71,23.72,22.87,23.05,3737996
04/15/2005,22.9,23.04,22.45,22.48,3821373
04/18/2005,22.51,22.8,22.29,22.67,4313261
04/19/2005,22.81,23.16,22.78,23.1,2673438
04/20/2005,23.13,23.25,22.77,22.81,4206518
04/21/2005,23.14,23.42,22.85,23.38,2626407
04/22/2005,23.92,23.92,23.18,23.44,3050213
04/25/2005,23.5,23.95,23.47,23.7,2391282
04/26/2005,23.57,23.62,23.05,23.05,3334676
04/27/2005,23.04,23.12,22.75,23,3641641
04/28/2005,23.05,23.25,22.91,22.94,3528551
04/29/2005,23.18,23.55,23.05,23.41,2615156
05/02/2005,23.42,23.73,23.41,23.57,2450418
05/03/2005,23.55,23.82,23.47,23.63,1659937
05/04/2005,23.62,23.93,23.61,23.91,3120029
05/05/2005,23.91,24.12,23.68,23.89,2688147
05/06/2005,23.98,24.16,23.85,24.02,2815452
05/09/2005,23.69,23.96,23.68,23.91,2312019
05/10/2005,23.86,23.86,23.4,23.49,2721185
05/11/2005,23.52,23.56,23.1,23.41,2768182
05/12/2005,23.68,23.68,22.71,22.79,3118310
05/13/2005,22.7,22.86,22.22,22.51,3773330
05/16/2005,22.5,22.69,22.39,22.63,2878210
05/17/2005,22.61,23.03,22.44,23,2282510
05/18/2005,23.09,23.6,23.07,23.45,1873338
05/19/2005,23.47,23.47,23.09,23.19,1550996
05/20/2005,23.25,23.25,22.91,23.08,1288833
05/23/2005,23.12,23.56,23.1,23.41,1363045
05/24/2005,23.28,23.39,23.1,23.31,1953297
05/25/2005,23.25,23.25,22.87,23.05,1673057
05/26/2005,23.12,23.17,23.01,23.09,1113771
05/27/2005,23.09,23.13,22.94,23.03,1283674
05/31/2005,22.93,22.96,22.7,22.84,1379948
06/01/2005,22.75,23.32,22.75,23.2,1373633
06/02/2005,23.1,23.17,22.87,23.1,1524932
06/03/2005,23.03,23.22,22.79,22.86,1930942
06/06/2005,22.84,22.89,22.77,22.79,1556453
06/07/2005,22.95,23.15,22.77,22.81,2108577
06/08/2005,22.88,22.95,22.7,22.74,1605164
06/09/2005,22.75,22.75,22.25,22.63,2087100
06/10/2005,22.71,22.84,22.61,22.75,1524063
06/13/2005,22.73,22.99,22.66,22.79,1695980
06/14/2005,22.72,22.87,22.71,22.8,1767041
06/15/2005,23,23,22.77,22.95,1357889
06/16/2005,23,23.59,23,23.36,2112886
06/17/2005,23.63,23.63,23.25,23.27,2245284
06/20/2005,23.14,23.16,22.92,22.98,1255310
06/21/2005,22.98,23,22.72,22.85,1131528
06/22/2005,22.98,23.04,22.74,22.79,1269928
06/23/2005,22.8,22.86,22.24,22.37,1566195
06/24/2005,22.32,22.34,21.94,22.02,2134376
06/27/2005,22.06,22.28,21.88,22.05,2932923
06/28/2005,22.18,22.56,22.14,22.4,1833225
06/29/2005,22.38,22.45,22.27,22.29,1707159
06/30/2005,22.21,22.33,21.88,21.88,1991690
07/01/2005,22.07,22.12,21.89,21.99,1591417
07/05/2005,21.95,22.02,21.78,21.93,1648142
07/06/2005,21.92,22.02,21.75,21.75,1515192
07/07/2005,21.4,21.66,21.3,21.63,2787666
07/08/2005,21.8,22.13,21.76,21.99,1763897
07/11/2005,22.2,22.51,22.18,22.5,2731519
07/12/2005,22.42,22.55,22.12,22.44,1970768
07/13/2005,22.45,22.52,22.12,22.25,1685969
07/14/2005,22.34,22.62,22.31,22.42,1515187
07/15/2005,22.44,22.59,22.33,22.41,1236411
07/18/2005,22.35,22.52,22.24,22.28,1078523
07/19/2005,22.45,22.65,22.38,22.59,1826075
07/20/2005,22.57,22.97,22.45,22.94,1555595
07/21/2005,22.94,22.96,22.47,22.48,1369640
07/22/2005,22.51,22.93,22.42,22.9,2503144
07/25/2005,22.92,22.97,22.64,22.65,1946121
07/26/2005,22.63,22.64,22.08,22.45,3085649
07/27/2005,22.6,22.85,22.57,22.84,1832085
07/28/2005,22.99,23.18,22.96,23.1,1804567
07/29/2005,22.98,23.1,22.7,22.72,1640692
08/01/2005,22.81,22.87,22.69,22.69,1250437
08/02/2005,22.8,23.08,22.79,22.98,1501431
08/03/2005,22.91,23.22,22.86,23.16,1234386
08/04/2005,23.17,23.19,22.69,22.71,1455313
08/05/2005,22.72,22.74,22.5,22.57,1786804
08/08/2005,22.67,22.83,22.58,22.64,1060963
08/09/2005,22.73,22.81,22.66,22.74,1174193
08/10/2005,22.8,22.9,22.61,22.7,2010186
08/11/2005,22.75,23.08,22.73,23.06,1812206
08/12/2005,22.99,23.03,22.58,22.71,1613949
08/15/2005,22.71,22.84,22.55,22.78,864131
08/16/2005,22.73,22.77,22.32,22.32,1662601
08/17/2005,22.32,22.43,22.15,22.32,1235343
08/18/2005,22.21,22.29,22.03,22.18,1738535
08/19/2005,22.35,22.61,22.2,22.45,2639485
08/22/2005,22.54,22.72,22.36,22.5,1512681
08/23/2005,22.48,22.51,22.1,22.36,3323481
08/24/2005,22.36,22.42,22.16,22.24,3085111
08/25/2005,22.2,22.24,21.99,22.07,1820745
08/26/2005,22.07,22.07,21.88,21.97,2189953
08/29/2005,21.89,22.14,21.74,22.12,1894133
08/30/2005,22.04,22.06,21.8,22.02,2009899
08/31/2005,22,22.14,21.81,22.13,2972756
09/01/2005,22.12,22.25,22.05,22.11,1798837
09/02/2005,22.15,22.19,21.9,22.14,1537996
09/06/2005,22.17,22.27,22.01,22.08,2239737
09/07/2005,22.11,22.28,22.11,22.15,2363202
09/08/2005,22.17,22.24,22,22.1,2619774
09/09/2005,22.12,22.12,21.91,22.05,1956706
09/12/2005,22.06,22.21,22.03,22.15,1760723
09/13/2005,22.14,22.17,21.84,21.84,1607693
09/14/2005,21.85,21.9,21.69,21.76,2474411
09/15/2005,21.76,21.81,21.55,21.61,1785471
09/16/2005,21.68,21.86,21.47,21.85,3186098
09/19/2005,21.76,21.8,21.55,21.71,2640245
09/20/2005,21.79,21.92,21.13,21.24,3762959
09/21/2005,21.06,21.07,20.64,20.76,4187914
09/22/2005,20.73,20.87,20.47,20.81,2865814
09/23/2005,20.87,21.05,20.65,20.95,3367574
09/26/2005,21.05,21.13,20.63,20.73,3036195
09/27/2005,20.71,20.78,20.44,20.56,3253510
09/28/2005,20.49,20.58,20.33,20.39,2645358
09/29/2005,20.39,20.57,20.18,20.57,2689735
09/30/2005,20.5,20.85,20.43,20.78,2962803
10/03/2005,20.84,20.84,20.44,20.45,2639110
10/04/2005,20.46,20.55,20.15,20.19,1641251
10/05/2005,20.18,20.18,19.852,19.86,3380933
10/06/2005,19.954,20.1,19.635,19.729,2614355
10/07/2005,19.881,20.22,19.881,20.14,3102748
10/10/2005,20.14,20.14,19.789,19.849,2216699
10/11/2005,19.863,19.923,19.627,19.659,2556898
10/12/2005,19.635,19.838,19.561,19.673,1913190
10/13/2005,19.624,19.867,19.585,19.754,2458191
10/14/2005,19.845,20.03,19.761,19.986,2092966
10/17/2005,19.99,20.07,19.909,20.05,1424224
10/18/2005,20.04,20.11,19.895,19.916,1416545
10/19/2005,19.881,20.07,19.733,20.06,1846921
10/20/2005,20.06,20.68,19.99,20.3,3785149
10/21/2005,20.62,20.98,20.48,20.51,4779851
10/24/2005,20.63,20.87,20.63,20.78,2955977
10/25/2005,20.74,20.86,20.35,20.39,3195201
10/26/2005,20.33,20.69,20.33,20.48,2071915
10/27/2005,20.44,20.57,20.35,20.36,1692743
10/28/2005,20.47,20.88,20.41,20.87,1807370
10/31/2005,20.93,21.19,20.92,21.07,2703681
11/01/2005,21.06,21.16,20.9,21.06,1768397
11/02/2005,21.05,21.37,20.98,21.29,4495417
11/03/2005,21.38,21.5,21.08,21.09,2643369
11/04/2005,21.15,21.2,20.88,21.01,1779785
11/07/2005,20.99,21.21,20.95,21.13,3371836
11/08/2005,21.17,21.24,20.96,21,2149064
11/09/2005,20.96,21.18,20.87,20.93,1484482
11/10/2005,20.96,21.5,20.8,21.33,1984011
11/11/2005,21.35,21.48,21.26,21.33,1298779
11/14/2005,21.22,21.49,21.19,21.42,2091523
11/15/2005,21.45,21.59,21.42,21.48,1713930
11/16/2005,21.55,21.59,21.23,21.29,1525740
11/17/2005,21.24,21.41,21.18,21.41,1550584
11/18/2005,21.63,21.64,21.39,21.56,1592844
11/21/2005,21.58,21.9,21.58,21.89,1967068
11/22/2005,21.88,22.04,21.8,22,2462088
11/23/2005,21.9,22.02,21.81,21.87,1309780
11/25/2005,21.82,21.94,21.65,21.7,906779
11/28/2005,21.69,21.69,21.5,21.53,1732814
11/29/2005,21.7,21.88,21.6,21.77,3176954
11/30/2005,21.81,21.89,21.52,21.52,2409323
12/01/2005,21.61,21.85,21.58,21.77,2026632
12/02/2005,21.71,21.71,21.54,21.56,1264337
12/05/2005,21.47,21.53,21.25,21.33,1866609
12/06/2005,21.44,21.55,21.35,21.37,1365946
12/07/2005,21.43,21.43,21.09,21.17,1415617
12/08/2005,21.2,21.25,20.98,21.02,1497179
12/09/2005,21.08,21.09,20.67,20.67,2788624
12/12/2005,20.67,20.69,20.29,20.49,4660874
12/13/2005,20.5,20.6,20.36,20.47,3775269
12/14/2005,20.24,20.37,19.942,20.14,4547145
12/15/2005,20.09,20.15,19.882,20.06,2857198
12/16/2005,20.19,20.2,20.01,20.07,3942063
12/19/2005,20.19,20.42,20.09,20.23,3944888
12/20/2005,20.27,20.43,20.12,20.14,2207539
12/21/2005,20.27,20.39,20.18,20.23,2483822
12/22/2005,20.23,20.58,20.23,20.46,2315627
12/23/2005,20.59,20.61,20.45,20.56,1402066
12/27/2005,20.62,20.75,20.44,20.48,1612051
12/28/2005,20.47,20.57,20.36,20.46,1182511
12/29/2005,20.5,20.6,20.46,20.51,1422660
12/30/2005,20.51,20.55,20.39,20.49,2125123
01/03/2006,20.63,20.64,20.15,20.56,2827859
01/04/2006,20.55,20.86,20.51,20.86,3416848
01/05/2006,20.85,21,20.81,20.9,3259933
01/06/2006,21.04,21.15,20.94,21.15,3583920
01/09/2006,21.17,21.27,21.12,21.26,4748368
01/10/2006,21.26,21.26,21.08,21.14,2953150
01/11/2006,21.07,21.1,20.87,21.06,2391822
01/12/2006,21.08,21.08,20.6,20.71,3174150
01/13/2006,20.99,21.02,20.7,20.73,2573283
01/17/2006,20.57,20.71,20.57,20.6,2571880
01/18/2006,20.59,20.69,20.34,20.43,2222215
01/19/2006,20.77,20.89,20.58,20.58,2512611
01/20/2006,20.63,20.63,20.13,20.21,3556828
01/23/2006,20.19,20.78,20.19,20.64,3795602
01/24/2006,20.77,20.91,20.73,20.81,2653441
01/25/2006,20.9,21.07,20.8,20.91,2059077
01/26/2006,21,21.14,20.91,21.04,2869624
01/27/2006,21.14,21.2,20.97,21.07,2719479
01/30/2006,21.04,21.06,20.71,20.99,2476212
01/31/2006,21.05,21.11,20.92,21.07,3484863
02/01/2006,20.92,20.99,20.82,20.93,2750247
02/02/2006,20.96,20.97,20.38,20.58,4840936
02/03/2006,20.55,20.6,20.34,20.36,1957763
02/06/2006,20.31,20.41,20.18,20.35,1648465
02/07/2006,20.35,20.43,20.13,20.19,1928420
02/08/2006,20.12,20.34,20.03,20.31,2468296
02/09/2006,20.32,20.74,20.32,20.47,3090317
02/10/2006,20.38,20.63,20.23,20.51,1650704
02/13/2006,20.46,20.67,20.31,20.63,2846387
02/14/2006,20.64,21.4,20.6,21.31,3975921
02/15/2006,21.21,21.39,21.1,21.3,2639936
02/16/2006,21.21,21.5,21.11,21.49,2793400
02/17/2006,21.52,21.55,21.43,21.46,1962297
02/21/2006,21.51,21.52,21.21,21.31,1843012
02/22/2006,21.43,21.6,21.17,21.31,3773173
02/23/2006,21.38,21.38,21.15,21.23,2850238
02/24/2006,21.26,21.36,21.17,21.23,2163065
02/27/2006,21.25,21.55,21.25,21.52,3005930
02/28/2006,21.52,21.85,21.43,21.65,6399449
03/01/2006,21.83,22.29,21.78,22.14,4292042
03/02/2006,22,22.23,21.91,22.22,3109808
03/03/2006,22.05,22.31,21.97,22.24,3287888
03/06/2006,22.3,22.3,22.11,22.22,2594284
03/07/2006,22.13,22.25,22.04,22.07,3231903
03/08/2006,22.06,22.06,21.67,21.92,3233582
03/09/2006,21.92,21.95,21.69,21.75,1789530
03/10/2006,21.84,21.96,21.75,21.92,2038191
03/13/2006,21.99,22.14,21.92,21.99,1602202
03/14/2006,22,22.24,22,22.22,1573917
03/15/2006,22.34,22.66,22.34,22.65,2869008
03/16/2006,22.64,22.97,22.64,22.84,3258779
03/17/2006,22.84,22.86,22.57,22.61,2734854
03/20/2006,22.6,22.75,22.48,22.62,1473393
03/21/2006,22.56,22.68,22.44,22.55,3103371
03/22/2006,22.56,22.64,22.5,22.56,2415927
03/23/2006,22.55,22.62,22.42,22.49,1334229
03/24/2006,22.45,22.61,22.23,22.55,2217122
03/27/2006,22.45,22.47,22.26,22.33,1775527
03/28/2006,22.31,22.47,22.21,22.38,2640786
03/29/2006,22.39,22.65,22.33,22.6,1527717
03/30/2006,22.51,22.69,22.41,22.57,1701609
03/31/2006,22.52,22.69,22.44,22.65,1956424
04/03/2006,22.63,22.95,22.63,22.8,2967282
04/04/2006,22.73,23.05,22.61,23.01,2988564
04/05/2006,22.97,23.12,22.8,23.06,2324641
04/06/2006,23.07,23.08,22.83,22.98,1510073
04/07/2006,23,23.1,22.54,22.58,1655121
04/10/2006,22.62,22.68,22.48,22.49,1248272
04/11/2006,22.61,22.72,22.35,22.37,1377070
04/12/2006,22.43,22.68,22.38,22.61,1516511
04/13/2006,22.61,22.79,22.48,22.63,1068504
04/17/2006,22.6,22.75,22.55,22.67,1321071
04/18/2006,22.67,22.73,22.53,22.53,3990480
04/19/2006,22.42,22.7,22.4,22.57,3662564
04/20/2006,23.03,23.53,22.93,23.52,6431095
04/21/2006,23.71,23.99,23.67,23.79,4383036
04/24/2006,23.65,23.87,23.42,23.81,2827543
04/25/2006,23.82,24.02,23.71,23.98,3928863
04/26/2006,24.01,24.17,23.97,24.07,4266004
04/27/2006,23.9,24.3,23.81,24.02,2544450
04/28/2006,24.03,24.12,23.87,23.94,3041198
05/01/2006,24.12,24.27,24,24.01,2699586
05/02/2006,24,24.31,23.92,24.25,2101456
05/03/2006,24.25,24.46,24.2,24.4,2483694
05/04/2006,24.41,24.6,24.28,24.28,2385686
05/05/2006,24.35,24.4,24.27,24.38,2788629
05/08/2006,24.47,24.6,24.47,24.53,2132048
05/09/2006,24.46,24.59,24.38,24.55,1443878
05/10/2006,24.58,24.68,24.43,24.62,2449028
05/11/2006,24.68,24.73,24.51,24.57,1844549
05/12/2006,24.58,24.59,24.14,24.2,2362277
05/15/2006,24.2,24.2,23.72,23.96,2247163
05/16/2006,24.12,24.19,23.81,24.1,1918231
05/17/2006,23.94,24.05,23.56,23.67,2757951
05/18/2006,23.73,23.87,23.21,23.47,1861784
05/19/2006,23.71,23.71,23.35,23.52,2385072
05/22/2006,23.5,23.51,22.61,23.15,3793961
05/23/2006,23.25,23.46,23.11,23.14,2594446
05/24/2006,23.15,23.29,22.78,23.17,3125794
05/25/2006,23.33,23.45,23.15,23.23,1835647
05/26/2006,23.37,23.41,23.19,23.37,1347953
05/30/2006,23.2,23.23,22.85,23,1943247
05/31/2006,23.08,23.36,22.93,23.12,1610142
06/01/2006,23.03,23.36,22.88,23.34,1509775
06/02/2006,23.45,23.51,23.22,23.45,1373805
06/05/2006,23.36,23.37,22.97,23.07,2204072
06/06/2006,23.56,23.56,22.98,23.19,3723048
06/07/2006,23.28,23.29,22.93,23.01,2817446
06/08/2006,22.79,23.13,22.14,23.05,4526607
06/09/2006,22.98,23.06,22.73,22.93,1899051
06/12/2006,22.99,23.2,22.76,22.8,2172378
06/13/2006,22.64,22.9,22.44,22.54,2827189
06/14/2006,22.48,22.81,22.45,22.8,2276647
06/15/2006,22.87,23.49,22.85,23.4,2534955
06/16/2006,23.31,23.43,23.12,23.3,2241603
06/19/2006,23.31,23.34,22.59,22.69,3412184
06/20/2006,22.69,22.85,22.6,22.65,2004428
06/21/2006,22.7,23,22.63,22.84,2570816
06/22/2006,22.9,23.03,22.7,23,1691063
06/23/2006,22.92,23.38,22.88,23.12,1845393
06/26/2006,23.18,23.45,23.17,23.45,1257861
06/27/2006,23.4,23.46,22.81,22.89,2018616
06/28/2006,22.87,22.93,22.69,22.91,1179732
06/29/2006,23.13,23.5,23.05,23.47,2004144
06/30/2006,23.59,23.79,23.47,23.73,2335856
07/03/2006,23.86,23.91,23.76,23.86,710681
07/05/2006,23.86,23.86,23.59,23.69,1353583
07/06/2006,23.63,23.74,23.34,23.49,1749727
07/07/2006,23.42,23.63,23.32,23.4,1766135
07/10/2006,23.54,23.94,23.47,23.91,1867352
07/11/2006,23.95,24.03,23.87,23.96,2385072
07/12/2006,23.97,24.06,23.58,23.61,1304568
07/13/2006,23.41,23.51,22.78,22.79,3267610
07/14/2006,22.8,22.8,22.42,22.68,2457382
07/17/2006,22.57,22.9,22.56,22.75,2224627
07/18/2006,22.77,22.91,22.54,22.82,1334046
07/19/2006,23.04,23.52,22.98,23.46,2321833
07/20/2006,23.39,23.57,23.04,23.11,2035576
07/21/2006,23.12,23.12,22.24,22.33,3133575
07/24/2006,22.34,22.69,22.34,22.67,2769891
07/25/2006,22.67,22.82,22.37,22.78,2865554
07/26/2006,22.73,22.78,22.45,22.52,2621417
07/27/2006,22.52,22.53,21.97,22.04,3484472
07/28/2006,22.05,22.36,22.05,22.31,2070611
07/31/2006,22.23,22.26,22.03,22.14,1831201
08/01/2006,22.13,22.13,21.83,22,1717204
08/02/2006,22.13,22.46,22.08,22.33,2259951
08/03/2006,22.07,22.66,22.07,22.53,1593183
08/04/2006,22.55,22.79,22.46,22.51,1872365
08/07/2006,22.52,22.65,22.36,22.63,1267316
08/08/2006,22.67,22.83,22.46,22.48,1661069
08/09/2006,22.54,22.63,22.36,22.4,1837390
08/10/2006,22.39,22.49,22.21,22.44,1733364
08/11/2006,22.33,22.5,22.19,22.24,1008510
08/14/2006,21.9,22.72,21.9,22.44,1014041
08/15/2006,22.65,22.94,22.54,22.92,1349294
08/16/2006,23.12,23.41,23.07,23.38,1779435
08/17/2006,23.53,23.53,23.08,23.11,1795163
08/18/2006,23.23,23.29,23.07,23.11,1510724
08/21/2006,23.02,23.15,23,23.12,1120542
08/22/2006,23.14,23.19,22.89,22.96,1366666
08/23/2006,22.97,22.97,22.71,22.84,957191
08/24/2006,22.92,22.96,22.59,22.72,793580
08/25/2006,22.58,22.77,22.58,22.68,773658
08/28/2006,22.72,22.86,22.63,22.8,1211049
08/29/2006,22.86,22.89,22.54,22.84,1520897
08/30/2006,22.8,22.97,22.78,22.84,732047
08/31/2006,22.9,23.08,22.81,22.98,1197527
09/01/2006,23.09,23.39,23.02,23.33,1468483
09/05/2006,23.31,23.32,23.08,23.23,1949117
09/06/2006,23.18,23.27,23.08,23.12,2444024
09/07/2006,23.09,23.33,23.01,23.18,2552553
09/08/2006,23.18,23.56,23.17,23.53,1839318
09/11/2006,23.47,23.51,23.28,23.46,3029092
09/12/2006,23.47,23.89,23.42,23.85,2960930
09/13/2006,23.85,24.23,23.75,24.06,2222835
09/14/2006,23.88,24.01,23.7,23.94,2311413
09/15/2006,24.06,24.19,23.88,23.93,2515055
09/18/2006,23.99,24.17,23.78,24,1181521
09/19/2006,23.95,24.04,23.83,24.01,1451356
09/20/2006,24.16,24.48,24.09,24.45,2104464
09/21/2006,24.59,24.59,24.05,24.13,2270851
09/22/2006,24.09,24.14,23.87,23.95,1478957
09/25/2006,23.99,24.25,23.92,24.24,1966787
09/26/2006,24.21,24.6,24.21,24.57,2317473
09/27/2006,24.47,24.56,24.35,24.4,2184199
09/28/2006,24.4,24.72,24.35,24.69,2219532
09/29/2006,24.37,24.66,24.31,24.31,2204360
10/02/2006,24.39,24.4,24.06,24.25,1261810
10/03/2006,24.09,24.3,23.99,24.19,1622709
10/04/2006,24.06,24.41,24,24.33,1762876
10/05/2006,24.28,24.46,24.25,24.43,1393429
10/06/2006,24.28,24.55,24.26,24.54,1227039
10/09/2006,24.45,24.7,24.45,24.59,952224
10/10/2006,24.56,24.6,24.23,24.52,1447776
10/11/2006,24.5,24.77,24.41,24.75,1652240
10/12/2006,24.81,24.94,24.75,24.92,1569739
10/13/2006,24.88,24.93,24.77,24.84,955000
10/16/2006,24.75,25.18,24.75,25.08,1957411
10/17/2006,25.05,25.06,24.77,25,1605603
10/18/2006,25.15,25.26,24.75,24.81,1787707
10/19/2006,24.64,24.65,24.42,24.53,3095862
10/20/2006,24.66,24.77,24.43,24.73,2470076
10/23/2006,24.77,25.13,24.77,25.08,1995761
10/24/2006,25.08,25.3,24.88,24.93,2300380
10/25/2006,25.03,25.04,24.73,24.86,1421579
10/26/2006,25.05,25.05,24.74,24.91,1489173
10/27/2006,24.83,24.83,24.6,24.7,2190835
10/30/2006,24.71,25.08,24.66,24.99,1696390
10/31/2006,24.92,25.11,24.73,24.79,2186966
11/01/2006,24.74,25.05,24.58,24.6,2364672
11/02/2006,24.4,24.75,24.4,24.63,1892555
11/03/2006,24.56,24.77,24.36,24.41,2062818
11/06/2006,24.45,24.72,24.44,24.59,1970368
11/07/2006,24.69,24.83,24.61,24.66,1615536
11/08/2006,24.64,24.78,24.53,24.55,1751322
11/09/2006,24.55,24.69,24.37,24.39,1802271
11/10/2006,24.55,24.67,24.41,24.56,1567482
11/13/2006,24.6,24.93,24.56,24.88,1871604
11/14/2006,24.89,24.98,24.6,24.86,1349393
11/15/2006,24.96,25.13,24.87,25.04,1288564
11/16/2006,25.17,25.3,24.98,25.24,2048857
11/17/2006,24.74,24.75,23.71,23.96,8010521
11/20/2006,23.83,23.93,23.56,23.67,5144064
11/21/2006,23.6,23.8,23.46,23.75,3805578
11/22/2006,23.66,23.91,23.66,23.73,2109950
11/24/2006,23.63,23.75,23.63,23.71,575108
11/27/2006,23.63,23.64,23.28,23.47,2729680
11/28/2006,23.39,23.52,23.29,23.43,2927287
11/29/2006,23.51,23.52,23.39,23.48,4407791
11/30/2006,23.47,23.6,23.4,23.49,1898715
12/01/2006,23.61,23.63,23.34,23.5,2373659
12/04/2006,23.51,23.91,23.51,23.88,2517355
12/05/2006,23.93,24.34,23.93,24.24,2720217
12/06/2006,24.13,24.27,24.02,24.05,1881455
12/07/2006,24.08,24.18,23.98,24,857873
12/08/2006,23.91,24.11,23.87,24.03,1161989
12/11/2006,24.01,24.03,23.82,23.86,1099527
12/12/2006,23.85,23.85,23.58,23.72,2800650
12/13/2006,23.81,23.85,23.61,23.64,1797357
12/14/2006,23.7,24.01,23.65,23.94,3377101
12/15/2006,23.99,24.13,23.93,24.1,1373782
12/18/2006,24.2,24.2,23.98,24,1345008
12/19/2006,24,24.16,23.9,24.16,1393508
12/20/2006,24.14,24.14,23.91,23.91,1640635
12/21/2006,23.98,23.98,23.65,23.75,1138706
12/22/2006,23.66,23.66,23,23.46,2927490
12/26/2006,23.45,23.72,23.39,23.7,989925
12/27/2006,23.71,23.76,23.6,23.74,1495405
12/28/2006,23.65,23.8,23.63,23.63,887726
12/29/2006,23.63,23.65,23.41,23.41,759509
01/03/2007,23.43,23.75,23.38,23.53,1778995
01/04/2007,23.6,23.62,23.37,23.55,1603368
01/05/2007,23.45,23.64,23.37,23.59,2183386
01/08/2007,23.6,23.6,23.4,23.46,1628831
01/09/2007,23.64,23.9,23.53,23.81,2612979
01/10/2007,23.8,23.88,23.59,23.82,1392679
01/11/2007,23.83,24.3,23.83,24.24,2047483
01/12/2007,24.19,24.57,24.16,24.47,1790769
01/16/2007,24.48,24.66,24.48,24.57,1371040
01/17/2007,24.56,24.78,24.41,24.76,1917894
01/18/2007,24.69,24.71,24.02,24.09,4323419
01/19/2007,24.28,24.34,23.94,24.11,3493260
01/22/2007,24.05,24.12,23.81,23.9,1558988
01/23/2007,23.9,24.13,23.85,24.09,1578160
01/24/2007,24.1,24.27,24,24.17,1961730
01/25/2007,24.25,24.26,23.91,23.98,1781706
01/26/2007,23.9,23.9,23.56,23.78,2154610
01/29/2007,23.8,23.98,23.71,23.86,1267746
01/30/2007,23.96,23.97,23.75,23.97,1163505
01/31/2007,23.97,24.28,23.97,24.21,2041452
02/01/2007,24.17,24.89,24.17,24.75,4035992
02/02/2007,24.77,24.83,24.53,24.7,1905834
02/05/2007,24.59,24.64,24.38,24.48,1353504
02/06/2007,24.48,24.83,24.48,24.76,1771315
02/07/2007,24.82,24.99,24.82,24.94,1794868
02/08/2007,24.84,24.93,24.66,24.67,1222538
02/09/2007,24.77,24.97,24.75,24.76,1536795
02/12/2007,24.82,25.12,24.78,24.8,1152997
02/13/2007,24.95,25.22,24.93,25.09,2261383
02/14/2007,25.2,25.3,25.03,25.22,1543216
02/15/2007,25.15,25.3,25.15,25.23,1113007
02/16/2007,25.32,25.37,25.03,25.09,1710852
02/20/2007,24.88,25.17,24.62,25.08,2192269
02/21/2007,25.03,25.13,24.89,25.1,1738319
02/22/2007,25.18,25.2,24.75,24.79,1845759
02/23/2007,24.8,24.95,24.6,24.91,1994804
02/26/2007,25.07,25.17,24.88,25,1953067
02/27/2007,24.84,24.84,23.84,24.32,2068788
02/28/2007,24.31,24.68,24.28,24.37,1884030
03/01/2007,24.15,24.43,23.79,24.28,1249233
03/02/2007,24.18,24.3,23.97,24.08,2403336
03/05/2007,24.08,24.25,23.85,23.95,2347578
03/06/2007,24.08,24.35,23.99,24.2,2321114
03/07/2007,24.13,24.26,24.03,24.09,1583296
03/08/2007,24.17,24.56,24.14,24.44,1859086
03/09/2007,24.6,25.04,24.58,24.99,3122732
03/12/2007,24.93,25.39,24.93,25.26,2930174
03/13/2007,25.3,25.59,24.87,24.92,6311501
03/14/2007,24.99,25.16,24.59,25.1,3088198
03/15/2007,25.12,25.49,25.1,25.36,1988293
03/16/2007,25.35,25.55,25.13,25.35,2766704
03/19/2007,25.38,25.88,25.32,25.82,4449365
03/20/2007,25.92,26.27,25.92,26.18,4946136
03/21/2007,26.06,26.57,25.99,26.5,2613292
03/22/2007,26.53,26.55,26.37,26.44,2419376
03/23/2007,26.33,26.62,26.29,26.56,2076406
03/26/2007,26.57,26.58,26.13,26.57,1933602
03/27/2007,26.38,26.47,26.21,26.33,1652367
03/28/2007,26.28,26.28,25.89,26,1834057
03/29/2007,26.19,26.25,25.72,25.94,2435054
03/30/2007,25.93,26.2,25.63,25.84,2946519
04/02/2007,25.85,26,25.71,25.97,1852280
04/03/2007,26.05,26.27,25.89,26.14,1685552
04/04/2007,26.18,26.29,26.08,26.19,1266847
04/05/2007,26.11,26.2,26.04,26.11,1464452
04/09/2007,26.39,26.77,26.28,26.39,1859079
04/10/2007,26.33,26.35,25.96,26.06,2325808
04/11/2007,26.14,26.2,25.86,25.94,2374240
04/12/2007,25.96,26.24,25.81,26.22,1614852
04/13/2007,26.23,26.23,26,26.09,1002851
04/16/2007,26.21,26.54,26.16,26.5,1725603
04/17/2007,26.47,26.47,26.01,26.02,2635888
04/18/2007,26.02,26.15,25.84,26.06,3387099
04/19/2007,26.3,27.9,26.07,27.74,7651074
04/20/2007,27.78,27.78,27.47,27.66,4753597
04/23/2007,27.54,27.74,27.49,27.58,2993810
04/24/2007,27.51,27.61,27.15,27.31,2686477
04/25/2007,27.32,27.6,27.32,27.58,2184125
04/26/2007,27.43,27.55,27.24,27.37,1987191
04/27/2007,27.36,27.49,27.06,27.47,1934053
04/30/2007,27.47,27.49,27.05,27.07,3280208
05/01/2007,27.06,27.1,26.79,26.95,2463181
05/02/2007,26.9,27.37,26.89,27.18,1822115
05/03/2007,27.19,27.59,27.19,27.55,2620963
05/04/2007,27.57,27.62,27.3,27.5,1566154
05/07/2007,27.57,27.89,27.52,27.86,1761435
05/08/2007,27.82,27.82,27.55,27.7,1714915
05/09/2007,27.68,27.99,27.65,27.98,1899244
05/10/2007,27.78,27.89,27.42,27.53,2212252
05/11/2007,27.58,27.71,27.42,27.63,2207214
05/14/2007,27.57,27.82,27.5,27.56,1686247
05/15/2007,27.68,27.98,27.57,27.67,1741400
05/16/2007,27.68,27.8,27.5,27.78,1896169
05/17/2007,27.72,28.02,27.72,27.94,2016175
05/18/2007,28.15,29.16,27.98,28.75,6297946
05/21/2007,28.53,28.99,28.35,28.83,4162305
05/22/2007,28.73,28.9,28.64,28.85,2273143
05/23/2007,28.82,29.09,28.6,28.61,2048882
05/24/2007,28.45,28.58,28.23,28.36,3878370
05/25/2007,28.37,28.58,28.34,28.5,1862176
05/29/2007,28.5,28.57,28.16,28.28,1953776
05/30/2007,28.16,28.51,27.94,28.5,2852940
05/31/2007,28.46,28.53,28.19,28.21,2559810
06/01/2007,28.2,28.5,28.11,28.26,2237747
06/04/2007,28.12,28.28,27.95,28.23,2685727
06/05/2007,28.07,28.31,28.04,28.26,1848109
06/06/2007,28.26,28.26,27.94,28.05,3039415
06/07/2007,27.87,28.04,27.32,27.33,2987266
06/08/2007,27.31,27.51,27.08,27.43,1656277
06/11/2007,27.37,27.54,27.17,27.47,1860018
06/12/2007,27.47,27.48,27,27.01,2290435
06/13/2007,27.22,27.47,27.06,27.45,1380297
06/14/2007,27.42,27.72,27.42,27.58,1213707
06/15/2007,27.94,28.07,27.69,27.76,2136817
06/18/2007,27.77,27.98,27.65,27.68,1154271
06/19/2007,27.52,27.71,27.4,27.68,1535242
06/20/2007,27.76,27.96,27.47,27.47,1893245
06/21/2007,27.46,27.71,27.22,27.61,1315848
06/22/2007,27.45,27.68,27.18,27.26,2687614
06/25/2007,27.27,27.56,27.17,27.32,2248942
06/26/2007,27.52,27.71,27.27,27.35,2640869
06/27/2007,27.12,27.9,27.09,27.9,2555765
06/28/2007,27.73,27.76,27.5,27.59,2787861
06/29/2007,27.7,28.49,27.67,28.17,4140719
07/02/2007,28.35,28.55,28.26,28.46,1859206
07/03/2007,28.44,28.49,28.32,28.33,680894
07/05/2007,28.32,28.78,28.32,28.64,2073736
07/06/2007,28.5,28.59,28.43,28.52,1497954
07/09/2007,28.59,28.83,28.51,28.81,2178309
07/10/2007,28.63,28.75,28.39,28.39,2480118
07/11/2007,28.39,28.64,28.35,28.46,1955927
07/12/2007,28.56,28.99,28.49,28.97,2479428
07/13/2007,28.85,29.24,28.8,29.17,1407720
07/16/2007,29.05,29.42,28.97,29.15,1898920
07/17/2007,29.34,29.83,29.29,29.81,3636816
07/18/2007,29.47,29.83,29.13,29.73,3478480
07/19/2007,28.74,30.13,28.73,29.79,6440297
07/20/2007,30.07,30.15,29.59,29.81,7033952
07/23/2007,29.89,30.5,29.72,30.41,3673991
07/24/2007,30.04,30.44,29.84,30.08,4773272
07/25/2007,30.22,30.24,29.39,29.73,4444660
07/26/2007,29.41,29.52,28.35,28.78,5391651
07/27/2007,28.74,28.93,27.96,28.15,4586812
07/30/2007,28.13,28.72,28.02,28.57,3112110
07/31/2007,28.73,28.98,28.2,28.24,3629767
08/01/2007,28.3,29.28,27.99,29.24,6103231
08/02/2007,29.25,29.5,28.91,29.08,2758138
08/03/2007,29.16,29.29,28.26,28.27,3344517
08/06/2007,28.45,28.89,27.86,28.86,4418471
08/07/2007,28.59,29.01,28.24,28.73,3212441
08/08/2007,28.91,29.03,28.29,28.5,5353610
08/09/2007,27.84,28.03,26.83,26.94,3949583
08/10/2007,26.72,27.97,26.47,27.74,3699855
08/13/2007,27.94,28.17,27.59,27.97,3293339
08/14/2007,28.19,28.26,26.94,26.95,2372253
08/15/2007,26.83,27.1,26.25,26.32,3004167
08/16/2007,26.17,26.83,25.27,26.8,5996694
08/17/2007,27.52,27.64,26.57,26.92,4834403
08/20/2007,27.05,27.39,26.94,27.3,2442290
08/21/2007,27.52,27.55,27.02,27.14,2016629
08/22/2007,27.34,27.67,27.18,27.25,2874396
08/23/2007,27.33,27.44,26.78,27.14,2675528
08/24/2007,27.01,27.59,26.97,27.55,2362054
08/27/2007,27.47,27.56,27.25,27.32,1349168
08/28/2007,27.18,27.28,26.53,26.57,1530604
08/29/2007,26.8,27.38,26.72,27.3,2359637
08/30/2007,27.05,27.53,27.04,27.39,2176595
08/31/2007,27.72,27.85,27.2,27.33,1730278
09/04/2007,27.44,27.57,27.11,27.41,1530866
09/05/2007,27.16,27.28,26.83,27.15,2082671
09/06/2007,27.33,27.64,27.1,27.46,2132050
09/07/2007,27.18,27.18,26.41,26.5,1889155
09/10/2007,26.59,26.79,26.18,26.6,2406069
09/11/2007,26.77,27.06,26.69,27.01,1875477
09/12/2007,26.99,27.93,26.98,27.72,3857926
09/13/2007,28.08,28.19,27.81,27.93,2387822
09/14/2007,27.88,27.95,27.35,27.46,2487927
09/17/2007,27.46,27.71,27.37,27.43,1592858
09/18/2007,27.61,28.22,27.31,28.18,2458134
09/19/2007,28.5,29.06,28.41,28.82,3585349
09/20/2007,28.77,28.8,27.98,28,2572728
09/21/2007,28.2,28.43,27.94,27.94,3806770
09/24/2007,28.06,28.33,27.79,27.83,3190283
09/25/2007,27.78,28.05,27.57,28.05,1805162
09/26/2007,28.12,28.4,27.96,28.19,2387547
09/27/2007,28.24,28.61,28.01,28.35,2275155
09/28/2007,28.25,28.38,28.05,28.12,2721964
10/01/2007,28.15,28.8,28.15,28.64,1844337
10/02/2007,28.5,28.54,28.13,28.42,2261951
10/03/2007,28.24,28.59,28.21,28.44,2076493
10/04/2007,28.47,28.85,28.3,28.69,1592064
10/05/2007,28.95,29.38,28.78,29.22,2018792
10/08/2007,29.1,29.25,28.69,28.9,1546161
10/09/2007,28.88,29.23,28.78,29.18,1547237
10/10/2007,29.12,29.39,28.9,29.17,1588021
10/11/2007,29.3,29.72,28.99,29.16,1842461
10/12/2007,29.25,29.48,29.07,29.4,1378149
10/15/2007,29.53,29.79,28.83,29.06,1800857
10/16/2007,29.02,29.44,28.88,29.25,2385937
10/17/2007,29.44,29.62,28.7,28.92,2122450
10/18/2007,28.32,28.88,28.01,28.11,4880295
10/19/2007,27.99,28.16,27.64,27.64,5258464
10/22/2007,27.36,27.87,27.3,27.74,3431849
10/23/2007,27.98,28.15,27.58,27.86,2497586
10/24/2007,27.75,27.86,27.49,27.77,3034347
10/25/2007,27.81,27.99,27.26,27.4,3667747
10/26/2007,27.62,27.65,27.32,27.39,1945521
10/29/2007,27.57,27.67,27.44,27.64,2548577
10/30/2007,27.52,27.58,27.07,27.16,2517987
10/31/2007,27.29,27.85,27.12,27.79,2525235
11/01/2007,27.76,27.76,27.13,27.21,2580781
11/02/2007,27.55,27.55,26.97,27.32,1986309
11/05/2007,27.2,27.28,26.79,27.02,2309376
11/06/2007,27.27,27.53,26.89,27.53,1993793
11/07/2007,27.32,27.35,26.48,26.49,2710184
11/08/2007,26.47,26.98,26.2,26.85,3323858
11/09/2007,26.5,26.6,25.97,26,3438243
11/12/2007,25.9,26.23,25.71,25.72,2754012
11/13/2007,25.99,26.08,25.59,25.73,3519519
11/14/2007,25.95,25.97,25.54,25.55,3374158
11/15/2007,25.44,25.85,25.09,25.31,3508693
11/16/2007,25.4,25.52,24.78,25.07,3966202
11/19/2007,25,25.12,24.52,24.59,3193897
11/20/2007,24.54,25.09,24.47,24.82,3104352
11/21/2007,24.53,24.88,24.47,24.56,3078211
11/23/2007,24.75,25.01,24.56,24.94,914981
11/26/2007,24.94,25.5,24.72,24.72,2904302
11/27/2007,24.85,25.07,24.36,24.75,4464297
11/28/2007,24.79,25.76,24.79,25.73,5525627
11/29/2007,25.62,26.39,25.45,25.69,3036488
11/30/2007,25.93,25.93,25.39,25.75,4412636
12/03/2007,25.58,25.91,25.55,25.65,2972582
12/04/2007,25.58,25.76,25.4,25.56,1893633
12/05/2007,25.83,25.83,25.63,25.77,2713899
12/06/2007,25.8,26,25.66,25.89,2243425
12/07/2007,26.1,26.47,25.94,26.35,1781759
12/10/2007,26.57,26.67,26.35,26.59,1356918
12/11/2007,26.61,26.63,25.68,25.69,2489248
12/12/2007,26.24,26.46,25.78,26.09,2277606
12/13/2007,26.13,26.5,25.95,26.47,2988409
12/14/2007,26.04,26.43,26.04,26.06,2620808
12/17/2007,26.06,26.08,25.48,25.54,3032714
12/18/2007,25.82,26.14,25.51,26.04,3547784
12/19/2007,26.25,26.25,25.64,25.74,2416364
12/20/2007,25.93,26.26,25.74,26.24,2364587
12/21/2007,26.45,26.95,26.13,26.9,3832438
12/24/2007,26.92,27.1,26.83,26.98,522790
12/26/2007,26.86,27,26.6,26.96,1122161
12/27/2007,25.8,26.64,25.8,26.51,3486579
12/28/2007,26.77,26.84,26.29,26.4,2012199
12/31/2007,26.18,26.56,26.18,26.3,1831151
01/02/2008,26.64,26.64,25.56,25.78,3205864
01/03/2008,25.86,25.89,25.33,25.41,3335382
01/04/2008,25.28,25.33,24.95,24.96,3336073
01/07/2008,25.31,25.41,24.65,25.17,4702510
01/08/2008,25.31,25.52,24.45,24.49,5339944
01/09/2008,23.97,24.57,23.79,24.36,6741644
01/10/2008,24.37,24.64,23.82,24.43,4957759
01/11/2008,24.26,24.26,23.69,23.74,5545641
01/14/2008,23.77,24.35,23.77,24.21,3447584
01/15/2008,23.78,24.07,23.36,23.38,4204682
01/16/2008,23.46,23.64,22.98,23.08,6489158
01/17/2008,23.85,24.8,23.41,23.61,8497976
01/18/2008,23.44,23.97,22.78,23.29,6835338
01/22/2008,22.18,23.46,22.18,23.1,7645214
01/23/2008,22.45,24.02,21.99,23.95,6574967
01/24/2008,23.93,24.48,23.69,23.97,5245125
01/25/2008,24.31,24.67,23.53,23.6,4904532
01/28/2008,23.76,24.23,23.44,24.18,3993788
01/29/2008,24.4,24.64,24.13,24.21,3903986
01/30/2008,24.2,24.73,23.87,23.97,4116579
01/31/2008,23.87,25.02,23.65,24.75,4746202
02/01/2008,24.76,25.25,24.67,25.18,3101761
02/04/2008,25.42,25.49,24.86,24.87,3700586
02/05/2008,24.45,24.75,24.17,24.18,2421438
02/06/2008,24.42,24.76,24.15,24.23,2519050
02/07/2008,24,24.4,23.91,24.12,3176831
02/08/2008,23.99,24.29,23.8,24.15,2645363
02/11/2008,24.02,24.43,23.97,24.32,2222599
02/12/2008,24.25,24.71,24.14,24.41,3122464
02/13/2008,24.76,24.92,24.4,24.56,3688085
02/14/2008,24.57,24.58,24.02,24.11,3750168
02/15/2008,24.02,24.11,23.59,23.95,5317675
02/19/2008,24.28,24.6,24.12,24.44,3456850
02/20/2008,23.64,24.24,23.64,24.12,4418695
02/21/2008,24.24,24.38,24.04,24.19,4654445
02/22/2008,24.36,24.38,23.8,24.35,2966570
02/25/2008,24.44,24.97,24.27,24.94,3399315
02/26/2008,24.88,25.12,24.64,24.86,3671293
02/27/2008,24.77,25,24.56,24.65,4367169
02/28/2008,24.36,24.54,23.87,24.11,6664872
02/29/2008,24.03,24.05,23.3,23.42,4413672
03/03/2008,23.46,23.71,23.33,23.68,4687386
03/04/2008,23.45,23.58,22.88,23.18,5524934
03/05/2008,23.27,23.54,23.15,23.37,6536326
03/06/2008,23.09,23.36,22.92,22.98,5008383
03/07/2008,22.71,22.72,22.03,22.11,7336520
03/10/2008,22.22,22.22,21.66,21.73,7579208
03/11/2008,22.43,22.59,21.85,22.58,6216025
03/12/2008,22.51,23,22.42,22.62,3393293
03/13/2008,22.36,23.03,22.05,22.88,5217799
03/14/2008,22.99,23.08,21.96,22.35,6572908
03/17/2008,21.83,22.43,21.62,21.96,6742926
03/18/2008,22.58,23.03,22.1,22.62,4857421
03/19/2008,22.95,23.14,22.11,22.11,3975495
03/20/2008,22.12,22.5,21.98,22.3,4156992
03/24/2008,22.28,23.37,22.17,22.87,3637268
03/25/2008,23.07,23.24,22.81,23.08,2118039
03/26/2008,22.99,23.11,22.5,22.57,3146700
03/27/2008,22.71,22.88,22.27,22.55,3064360
03/28/2008,22.67,22.67,22.22,22.41,3091855
03/31/2008,22.26,22.97,22.26,22.89,4609842
04/01/2008,22.93,23.66,22.77,23.65,4262475
04/02/2008,23.47,24.28,23.47,23.89,7103144
04/03/2008,23.75,24.41,23.58,23.96,4327851
04/04/2008,24.07,24.67,23.94,24.49,3892514
04/07/2008,24.75,24.75,24.05,24.08,3854269
04/08/2008,24.06,24.19,23.87,24.11,3252614
04/09/2008,24.26,24.36,23.85,23.94,1983593
04/10/2008,23.89,24.25,23.72,24.06,3001634
04/11/2008,23.86,24.24,23.76,23.94,2619944
04/14/2008,24.1,24.1,23.69,23.74,2631695
04/15/2008,23.8,24.02,23.65,23.83,2326459
04/16/2008,24,24.93,23.95,24.86,5235507
04/17/2008,24.76,24.97,24.25,24.5,3778301
04/18/2008,25.03,25.16,24.54,25.1,3492866
04/21/2008,24.86,24.97,24.48,24.75,3759194
04/22/2008,24.54,24.7,24.11,24.48,3953273
04/23/2008,24.58,24.76,23.8,23.95,2959201
04/24/2008,23.92,24.23,23.64,24.1,2905787
04/25/2008,24.24,24.56,24.05,24.5,2273964
04/28/2008,24.64,25.17,23.82,24,3087660
04/29/2008,23.91,24.07,23.5,23.58,3260760
04/30/2008,23.52,23.86,23.09,23.18,4646114
05/01/2008,23.17,23.73,22.86,23.62,5113989
05/02/2008,23.72,24.05,23.57,23.73,5028640
05/05/2008,23.74,23.96,23.48,23.92,3095893
05/06/2008,23.91,24.06,23.56,24,3147117
05/07/2008,23.96,24.24,23.72,23.78,3447925
05/08/2008,23.94,24.12,23.75,24.04,1755023
05/09/2008,23.71,23.95,23.55,23.7,1711975
05/12/2008,23.83,24.04,23.38,24,2381213
05/13/2008,23.94,24.26,23.94,24.25,2111091
05/14/2008,24.37,24.94,24.24,24.75,3222283
05/15/2008,24.83,25.1,24.53,25.06,2980828
05/16/2008,24.95,25.35,24.95,25.23,3161100
05/19/2008,25.25,25.25,24.57,24.64,2756502
05/20/2008,24.41,24.77,24.41,24.66,2328595
05/21/2008,24.67,24.73,24.08,24.23,3849486
05/22/2008,24.32,24.52,24.11,24.28,2395513
05/23/2008,24.29,24.3,23.75,23.85,3330428
05/27/2008,23.84,23.91,23.52,23.78,3047456
05/28/2008,23.88,24.17,23.67,24.16,2702709
05/29/2008,23.92,24.36,23.81,24.15,2582411
05/30/2008,24.32,24.46,23.93,24,2818254
06/02/2008,23.95,24,23.68,23.84,2277021
06/03/2008,23.21,23.72,23.21,23.44,4631496
06/04/2008,23.43,23.92,23.37,23.61,3284728
06/05/2008,23.83,24.07,23.64,24.04,2202937
06/06/2008,23.92,23.92,23.34,23.38,3789392
06/09/2008,23.51,23.51,22.82,23.07,3311620
06/10/2008,22.92,23.1,22.69,23.02,3217962
06/11/2008,22.95,23.16,22.83,22.89,3022692
06/12/2008,22.89,23.05,22.62,22.8,4685360
06/13/2008,22.89,23.67,22.85,23.66,5063138
06/16/2008,23.48,23.72,23.37,23.6,3018530
06/17/2008,23.68,23.82,23.44,23.47,2266776
06/18/2008,23.39,23.39,22.98,23.14,2438870
06/19/2008,23.13,23.42,22.95,23.29,2623316
06/20/2008,23.08,23.25,22.69,22.87,3670101
06/23/2008,23.02,23.18,22.77,23.1,2332893
06/24/2008,23.06,23.08,22.47,22.56,3539178
06/25/2008,22.56,22.74,22.46,22.57,4272843
06/26/2008,22.32,22.36,21.8,21.82,3495683
06/27/2008,21.8,21.99,21.67,21.85,3000809
06/30/2008,21.78,22.08,21.51,21.87,5450785
07/01/2008,21.68,22,21.51,21.94,4767205
07/02/2008,22.08,22.11,21.19,21.26,4957933
07/03/2008,21.36,21.5,20.84,21.25,3002665
07/07/2008,21.32,21.57,21.04,21.19,3387081
07/08/2008,21.03,21.52,20.98,21.48,4988206
07/09/2008,21.54,21.68,20.85,20.86,4696743
07/10/2008,21.09,21.58,20.86,21.11,6165728
07/11/2008,20.91,21.3,20.61,21.17,5144142
07/14/2008,21.58,21.58,20.94,21.02,4304320
07/15/2008,20.83,21.5,20.73,21.28,5489241
07/16/2008,21.39,21.77,20.95,21.75,6163710
07/17/2008,22.31,23.48,22.31,23.3,8256150
07/18/2008,23.26,23.8,22.94,23.15,5419304
07/21/2008,23.32,23.39,22.91,23.23,4653797
07/22/2008,23.12,23.55,23.03,23.47,6122121
07/23/2008,23.58,23.9,23.34,23.7,6797113
07/24/2008,23.67,23.77,23.24,23.3,4653751
07/25/2008,23.39,23.54,23.02,23.06,4402131
07/28/2008,23.04,23.19,22.63,22.76,3809305
07/29/2008,22.87,23.16,22.38,22.95,4388744
07/30/2008,23.19,23.52,23.07,23.52,3650798
07/31/2008,23.37,23.61,23.05,23.12,2960572
08/01/2008,23.17,23.29,22.55,22.56,1919578
08/04/2008,22.53,22.54,22.17,22.24,2516549
08/05/2008,22.4,23.08,22.37,23.06,3344359
08/06/2008,23.06,23.7,23.06,23.64,5063184
08/07/2008,23.56,24.18,23.38,23.6,5363894
08/08/2008,23.65,24.38,23.37,24.34,3929789
08/11/2008,24.28,24.88,24.09,24.74,4295295
08/12/2008,24.63,24.95,24.58,24.68,2584352
08/13/2008,24.58,24.71,23.82,24.4,3843684
08/14/2008,24.26,24.39,23.97,24.28,3638925
08/15/2008,24.32,24.89,23.99,24.84,2970291
08/18/2008,24.99,24.99,24.64,24.72,3559499
08/19/2008,24.55,24.75,24.14,24.27,2490442
08/20/2008,24.14,24.42,24.01,24.38,1940407
08/21/2008,24.25,24.29,23.83,24.05,3099956
08/22/2008,24.03,24.3,23.85,24.01,3105316
08/25/2008,23.95,23.97,23.31,23.63,3302218
08/26/2008,23.58,23.75,23.39,23.72,2643505
08/27/2008,23.74,23.93,23.7,23.81,1550153
08/28/2008,24.01,24.49,23.93,24.39,3524452
08/29/2008,24.34,24.45,24.16,24.22,2121694
09/02/2008,24.65,25.38,24.46,25.15,5261904
09/03/2008,25.54,26.04,25.37,25.7,6045926
09/04/2008,25.54,25.54,24.64,25.22,4864025
09/05/2008,25.03,25.14,24.58,25.07,4209024
09/08/2008,25.04,25.49,24.88,25.37,4154733
09/09/2008,25.24,25.56,24.83,24.86,4578772
09/10/2008,25.06,25.27,24.72,24.92,6350845
09/11/2008,24.64,25.68,24.48,25.64,4434047
09/12/2008,25.48,26.09,25.36,26.04,4077802
09/15/2008,25.18,26.56,25.18,25.66,4453051
09/16/2008,25.26,26,24.64,25.85,5841882
09/17/2008,25.4,25.67,24.51,25.58,6928182
09/18/2008,25.88,26.4,24.58,25.78,10910374
09/19/2008,25.85,26.88,25.68,25.89,7815312
09/22/2008,25.51,26.09,24.81,24.93,4057407
09/23/2008,24.93,25.19,23.89,23.91,5430664
09/24/2008,23.83,23.83,22.74,22.99,6722298
09/25/2008,23.05,23.84,22.81,23.54,4370148
09/26/2008,23.13,23.68,23.1,23.67,3271630
09/29/2008,23.29,23.71,21.96,22.23,6067425
09/30/2008,22.64,22.64,22.15,22.46,4307861
10/01/2008,22.24,22.73,21.8,22.26,3857818
10/02/2008,22.27,22.27,21.37,21.45,3752071
10/03/2008,21.69,22.11,21.16,21.26,4038353
10/06/2008,21,21.17,19.825,21.1,5176347
10/07/2008,21.22,21.33,19.363,19.49,6487601
10/08/2008,19.117,20.77,19.036,19.529,6600047
10/09/2008,19.644,20.18,18.148,18.298,5424523
10/10/2008,17.682,18.832,16.782,18.175,7159883
10/13/2008,18.367,19.702,17.929,19.586,4638121
10/14/2008,20.13,20.4,18.867,19.267,5474974
10/15/2008,19.032,19.032,17.086,17.132,4513874
10/16/2008,16.72,19.652,16.72,19.633,10419631
10/17/2008,18.236,19.536,18.236,18.556,5264817
10/20/2008,18.766,19.425,18.489,19.39,3242666
10/21/2008,19.802,20.025,18.994,19.14,4663118
10/22/2008,18.986,18.986,17.332,17.982,5124169
10/23/2008,18.155,18.825,17.009,17.879,5341022
10/24/2008,16.686,17.894,16.548,17.39,3786971
10/27/2008,17.152,17.975,16.863,16.917,3676688
10/28/2008,17.39,18.417,16.54,18.348,5070909
10/29/2008,17.763,19.148,17.763,18.363,4359872
10/30/2008,18.882,19.079,18.14,18.909,2551332
10/31/2008,18.809,19.329,18.536,19.063,3020448
11/03/2008,18.94,19.486,18.886,19.225,1993547
11/04/2008,19.617,19.971,19.386,19.817,3253169
11/05/2008,19.571,19.79,18.509,18.606,3644008
11/06/2008,18.563,18.804,17.222,17.385,6524398
11/07/2008,17.463,18.225,17.315,18.167,3865689
11/10/2008,18.793,18.855,17.622,17.902,2825327
11/11/2008,18.132,18.186,17.365,17.852,5005139
11/12/2008,17.502,17.793,17.14,17.214,4339711
11/13/2008,17.327,18.871,16.957,18.82,5485464
11/14/2008,18.023,18.657,17.599,17.638,3060767
11/17/2008,17.529,18.054,17.152,17.167,3905956
11/18/2008,17.113,17.684,16.728,17.233,3769669
11/19/2008,17.105,17.4,15.946,16.02,4076516
11/20/2008,15.856,16.374,14.336,14.456,6971033
11/21/2008,14.729,15.063,13.978,14.97,8659493
11/24/2008,15.226,16.634,15.226,16.179,6048441
11/25/2008,16.444,16.883,15.876,16.467,3761895
11/26/2008,16.335,17.082,16.012,17.039,2713117
11/28/2008,16.953,17.218,16.802,17.019,1215086
12/01/2008,16.238,16.525,15.343,15.398,4418175
12/02/2008,15.619,16.276,15.518,16.222,3177226
12/03/2008,15.946,16.875,15.732,16.72,3456526
12/04/2008,16.261,16.868,16.098,16.37,3088727
12/05/2008,16.175,16.973,15.573,16.895,3406305
12/08/2008,17.28,18.019,17.249,17.817,4088786
12/09/2008,17.645,18.073,17.245,17.315,3034781
12/10/2008,17.502,17.681,17.015,17.373,2994658
12/11/2008,17.373,17.552,16.381,16.56,3076213
12/12/2008,16.37,17.268,15.942,17.066,3575670
12/15/2008,17.26,17.381,16.634,16.942,3049704
12/16/2008,17.085,17.949,16.996,17.898,3174389
12/17/2008,17.657,17.891,17.144,17.288,4136379
12/18/2008,17.292,17.416,16.549,16.619,3844394
12/19/2008,16.724,17.105,16.063,16.133,7185656
12/22/2008,16.35,16.44,15.215,15.452,10432279
12/23/2008,15.689,15.767,15.051,15.067,6054349
12/24/2008,15.207,15.304,15.055,15.071,2662527
12/26/2008,15.265,15.37,14.911,15.312,2192341
12/29/2008,15.39,15.39,14.923,15.071,3636348
12/30/2008,15.183,15.74,15.082,15.72,3863873
12/31/2008,15.666,16.584,15.666,16.514,4764244
01/02/2009,16.51,17.008,16.218,16.922,3280377
01/05/2009,16.809,17.043,16.529,16.809,3042665
01/06/2009,16.996,17.677,16.926,17.509,4129827
01/07/2009,17.412,17.412,16.7,16.782,3864829
01/08/2009,16.7,17.202,16.529,17.183,2666354
01/09/2009,17.284,17.404,16.735,16.786,3006601
01/12/2009,16.767,16.848,16.432,16.533,2652941
01/13/2009,16.455,16.51,16.066,16.21,4903849
01/14/2009,15.88,16.109,15.561,15.662,4030651
01/15/2009,15.639,16.42,15.417,16.179,6765955
01/16/2009,15.561,16.319,15.417,16.113,6731532
01/20/2009,15.977,16.109,15.304,15.394,9661967
01/21/2009,15.681,15.79,15.082,15.759,8804250
01/22/2009,15.265,15.569,15.086,15.25,6757135
01/23/2009,14.977,15.499,14.857,15.25,5658542
01/26/2009,15.366,15.646,14.923,15.098,4187040
01/27/2009,15.232,15.456,14.902,15.197,5243800
01/28/2009,15.553,16.047,15.417,15.899,4509364
01/29/2009,15.724,15.864,15.261,15.316,3376171
01/30/2009,15.296,15.363,14.55,14.624,4780146
02/02/2009,14.456,14.756,14.157,14.565,3517658
02/03/2009,14.655,14.799,14.328,14.379,9397638
02/04/2009,14.511,14.515,14.149,14.188,7464366
02/05/2009,14.161,14.791,14.036,14.639,6161472
02/06/2009,14.639,15.293,14.639,15.188,3658463
02/09/2009,15.187,15.615,15.044,15.285,3702948
02/10/2009,15.156,15.44,14.437,14.542,5267030
02/11/2009,14.659,14.76,14.34,14.511,3245696
02/12/2009,14.39,14.425,13.853,14.347,4598158
02/13/2009,14.277,14.336,13.223,14.052,4044522
02/17/2009,13.721,13.993,13.371,13.371,5158995
02/18/2009,13.537,13.679,13.186,13.446,4771303
02/19/2009,13.746,13.861,13.13,13.19,6022086
02/20/2009,13.063,13.348,12.482,12.889,8137517
02/23/2009,13.134,13.134,12.261,12.277,6413919
02/24/2009,12.368,12.921,12.166,12.802,5995856
02/25/2009,12.874,12.949,12.498,12.617,5538959
02/26/2009,12.66,13,12.38,12.407,4397524
02/27/2009,12.186,12.601,12.107,12.265,4660500
03/02/2009,12.119,12.218,11.807,11.846,6705577
03/03/2009,12.064,12.147,11.697,11.783,9201478
03/04/2009,11.945,12.407,11.87,12.198,6605731
03/05/2009,11.85,11.918,11.124,11.266,9039743
03/06/2009,11.345,11.756,11.124,11.609,12148185
03/09/2009,11.53,11.803,11.447,11.656,8412145
03/10/2009,11.791,12.925,11.791,12.877,7855793
03/11/2009,13.024,13.122,12.818,13.02,6689894
03/12/2009,12.972,13.652,12.874,13.525,9835953
03/13/2009,13.063,13.182,12.889,13.024,11096591
03/16/2009,13.178,13.324,12.954,13.008,7406336
03/17/2009,13.015,13.419,12.81,13.419,5044125
03/18/2009,13.462,13.948,13.162,13.798,5822356
03/19/2009,13.956,14.043,13.723,13.889,5164088
03/20/2009,13.889,13.991,13.624,13.727,8235973
03/23/2009,14.007,14.616,13.849,14.608,3896856
03/24/2009,14.454,14.758,14.351,14.442,4168518
03/25/2009,14.454,15.034,14.086,14.572,6034857
03/26/2009,14.702,15.425,14.691,15.279,5231997
03/27/2009,14.912,14.912,14.023,14.564,9932579
03/30/2009,14.355,14.592,13.956,14.56,9938358
03/31/2009,14.734,14.825,14.379,14.552,5383422
04/01/2009,14.394,15.654,14.066,15.56,9234382
04/02/2009,15.919,16.749,15.722,16.622,9494651
04/03/2009,16.658,17.602,16.207,17.586,10219349
04/06/2009,17.452,17.55,17.246,17.491,7554897
04/07/2009,17.179,17.278,16.555,16.911,8804355
04/08/2009,16.974,17.049,16.543,16.914,6718681
04/09/2009,17.29,17.784,17.159,17.74,4227066
04/13/2009,17.637,17.993,17.203,17.803,4175269
04/14/2009,17.665,17.938,17.294,17.456,4205736
04/15/2009,17.4,17.554,17.246,17.503,6042674
04/16/2009,17.645,18.289,17.404,18.198,7652942
04/17/2009,18.226,18.23,17.44,17.87,5769181
04/20/2009,17.906,17.906,16.828,17.072,7211681
04/21/2009,16.907,17.274,16.689,17.234,6400984
04/22/2009,16.907,17.886,16.907,17.392,4771532
04/23/2009,17.42,17.562,16.717,17.148,4312109
04/24/2009,17.159,18.084,17.159,17.918,5095653
04/27/2009,17.701,17.764,17.203,17.392,4139471
04/28/2009,17.191,17.29,16.946,17.065,4515787
04/29/2009,17.29,17.622,17.286,17.404,3338917
04/30/2009,17.633,17.803,17.227,17.392,4166180
05/01/2009,17.373,17.594,17.207,17.361,3642563
05/04/2009,17.475,18.4,17.369,18.396,4593281
05/05/2009,18.451,18.467,17.847,18.103,4018102
05/06/2009,18.261,18.297,17.819,18.163,4686927
05/07/2009,18.287,18.746,17.292,17.496,6621602
05/08/2009,17.615,17.895,17.396,17.835,4767196
05/11/2009,17.623,17.707,17.216,17.424,4090028
05/12/2009,17.54,17.623,17.128,17.464,4086738
05/13/2009,17.168,17.184,16.692,16.752,5296787
05/14/2009,16.676,17.152,16.636,16.928,3092880
05/15/2009,17.036,17.256,16.712,16.884,3790678
05/18/2009,17.036,17.639,17.008,17.635,3035466
05/19/2009,17.584,17.999,17.484,17.855,3928815
05/20/2009,17.967,18.698,17.867,18.175,6985740
05/21/2009,18.023,18.023,17.416,17.623,4837806
05/22/2009,17.662,18.039,17.563,17.847,2264751
05/26/2009,17.761,18.091,17.522,17.997,5071266
05/27/2009,17.907,18.111,17.472,17.512,3030533
05/28/2009,17.719,17.771,17.16,17.611,3843014
05/29/2009,17.771,17.771,17.392,17.767,3166960
06/01/2009,18.051,18.499,17.915,18.407,2964830
06/02/2009,18.319,18.395,18.183,18.235,3834292
06/03/2009,18.083,18.143,17.548,17.839,4116513
06/04/2009,17.887,18.083,17.695,17.983,3252341
06/05/2009,18.327,18.383,17.803,17.987,4333152
06/08/2009,17.927,17.983,17.344,17.715,3950338
06/09/2009,17.787,18.263,17.647,18.175,3712624
06/10/2009,18.331,18.343,17.679,18.079,5201811
06/11/2009,18.127,18.407,18.103,18.139,3015913
06/12/2009,18.287,18.287,17.935,18.023,5306181
06/15/2009,17.959,17.959,17.464,17.58,3029330
06/16/2009,17.719,17.719,17.184,17.232,4253716
06/17/2009,17.156,17.44,16.944,17.276,3632739
06/18/2009,17.304,17.552,17.124,17.164,3448788
06/19/2009,17.252,17.3,16.984,17.116,5134694
06/22/2009,16.9,16.988,16.636,16.664,5282863
06/23/2009,16.66,16.68,16.421,16.604,4993414
06/24/2009,16.772,17.344,16.684,17.164,5160307
06/25/2009,17.116,17.528,16.984,17.504,3408429
06/26/2009,17.48,17.572,17.324,17.388,4412272
06/29/2009,17.412,17.647,17.228,17.528,2747958
06/30/2009,17.564,17.755,17.364,17.552,4233977
07/01/2009,17.528,17.703,17.376,17.48,3079785
07/02/2009,17.208,17.224,16.916,16.948,2710192
07/06/2009,16.812,17.232,16.616,17.196,3428832
07/07/2009,17.204,17.204,16.62,16.644,3766462
07/08/2009,16.668,16.816,16.532,16.712,4371607
07/09/2009,16.84,16.952,16.652,16.804,2213661
07/10/2009,16.692,16.884,16.469,16.764,3311090
07/13/2009,16.736,17.456,16.62,17.436,4988238
07/14/2009,17.408,17.747,17.316,17.667,3329601
07/15/2009,17.899,18.427,17.891,18.411,4986529
07/16/2009,18.842,19.781,18.822,19.682,12524285
07/17/2009,19.522,20.04,19.506,19.8,6022435
07/20/2009,19.953,20.25,19.797,20.14,5475687
07/21/2009,20.35,20.74,19.73,20.14,5601056
07/22/2009,19.989,20.52,19.989,20.26,3189812
07/23/2009,20.28,21.01,20.19,20.95,5262512
07/24/2009,20.84,21,20.56,20.99,2785723
07/27/2009,20.96,21.3,20.87,21.11,2567038
07/28/2009,20.92,21.08,20.7,21,2326578
07/29/2009,20.79,20.98,20.5,20.74,3763333
07/30/2009,20.95,21.92,20.91,21.73,6228755
07/31/2009,21.66,22.22,21.66,21.99,4482389
08/03/2009,22.22,22.75,22.12,22.69,3601480
08/04/2009,22.51,22.81,22.45,22.78,3404968
08/05/2009,22.89,22.96,22.43,22.8,4018329
08/06/2009,23.02,23.05,22.53,22.67,4029920
08/07/2009,22.85,22.85,22.41,22.64,5506827
08/10/2009,22.61,22.61,22.12,22.23,4210553
08/11/2009,22.09,22.37,22.01,22.25,3720746
08/12/2009,22.14,22.56,22.1,22.4,6750835
08/13/2009,22.41,22.75,22.34,22.53,4578556
08/14/2009,22.42,22.55,21.79,22,2829772
08/17/2009,21.85,21.85,21.28,21.35,4060989
08/18/2009,21.39,21.55,21.11,21.34,4108744
08/19/2009,21.13,21.71,21.08,21.55,5130334
08/20/2009,21.55,21.67,21.24,21.46,2904045
08/21/2009,21.63,22.06,21.5,21.98,2753829
08/24/2009,22.14,22.28,21.79,21.85,2422002
08/25/2009,22.02,22.36,21.85,21.91,3248913
08/26/2009,21.85,22.08,21.58,21.69,3164486
08/27/2009,21.64,22.35,21.4,22.24,6334231
08/28/2009,22.4,22.76,22.14,22.57,6147002
08/31/2009,22.28,22.37,22.09,22.37,3194393
09/01/2009,22.21,22.53,21.75,21.8,4324279
09/02/2009,21.71,21.86,21.5,21.73,4169383
09/03/2009,21.9,21.9,21.57,21.84,3391336
09/04/2009,21.81,22.15,21.58,22.14,3903144
09/08/2009,22.24,22.43,22.09,22.34,5615786
09/09/2009,22.3,22.85,22.12,22.78,6277691
09/10/2009,22.75,23.02,22.55,23,5855716
09/11/2009,23.08,23.25,22.88,23.14,3917988
09/14/2009,22.97,23.38,22.8,23.35,2539948
09/15/2009,23.36,24.04,23.23,23.95,5010269
09/16/2009,24.22,24.38,24.07,24.14,7006786
09/17/2009,24.18,24.29,23.74,23.9,5727188
09/18/2009,23.96,24.21,23.93,24.06,4323429
09/21/2009,23.73,24.21,23.57,24.08,4058273
09/22/2009,24.38,24.38,24.14,24.24,3282470
09/23/2009,24.36,24.36,23.8,23.81,4422690
09/24/2009,23.93,24.05,23.46,23.61,2593411
09/25/2009,23.44,23.61,23.13,23.29,2896155
09/28/2009,23.42,23.9,23.32,23.66,2580374
09/29/2009,23.7,24,23.65,23.7,2496102
09/30/2009,23.71,23.81,23.25,23.46,5646500
10/01/2009,23.48,23.53,22.79,22.81,3635669
10/02/2009,22.56,22.96,22.29,22.67,2921594
10/05/2009,22.8,23.25,22.67,23.18,2693484
10/06/2009,23.41,23.72,22.99,23.38,3459249
10/07/2009,23.41,23.52,23.17,23.33,1672681
10/08/2009,23.58,23.95,23.51,23.91,2999045
10/09/2009,23.92,24.11,23.77,24.1,1942127
10/12/2009,24.1,24.4,24.08,24.25,1857446
10/13/2009,24.12,24.49,24.09,24.46,1995340
10/14/2009,24.65,24.95,24.63,24.82,3568187
10/15/2009,24.14,25.1,24.14,25.01,6569336
10/16/2009,24.96,24.96,24.5,24.7,4539903
10/19/2009,24.67,25.13,24.67,24.98,2666717
10/20/2009,24.98,24.98,24.45,24.67,2498962
10/21/2009,24.69,24.96,24.02,24.06,3912004
10/22/2009,24.07,24.55,23.78,24.47,3110240
10/23/2009,24.51,24.59,23.81,23.93,2722459
10/26/2009,23.94,24.26,23.32,23.45,3504480
10/27/2009,23.42,23.99,23.4,23.8,4241755
10/28/2009,23.79,24.03,23.04,23.1,5413477
10/29/2009,23.35,23.58,23.21,23.52,5065897
10/30/2009,23.48,23.48,22.54,22.76,4011906
11/02/2009,22.89,23.29,22.67,23.15,4772665
11/03/2009,22.99,23.45,22.66,23.38,3186542
11/04/2009,23.61,23.68,23.21,23.25,2757154
11/05/2009,23.45,23.94,23.38,23.85,2497829
11/06/2009,23.86,24.23,23.69,23.94,2600751
11/09/2009,24.13,24.78,24.08,24.78,2614611
11/10/2009,24.71,24.93,24.59,24.82,2643887
11/11/2009,25.03,25.13,24.75,24.88,1980436
11/12/2009,24.87,24.91,24.35,24.51,2670696
11/13/2009,24.59,24.78,24.33,24.56,2354963
11/16/2009,24.72,25.1,24.72,24.97,2270341
11/17/2009,24.88,25.04,24.74,24.94,1803815
11/18/2009,24.99,24.99,24.46,24.63,2710327
11/19/2009,24.49,24.49,23.98,24.21,2959125
11/20/2009,24.05,24.23,23.88,24.14,2673404
11/23/2009,24.34,24.89,24.34,24.64,4813481
11/24/2009,24.58,24.77,24.3,24.38,3305337
11/25/2009,24.47,24.82,24.39,24.69,1438214
11/27/2009,24.12,24.45,23.94,24.17,947349
11/30/2009,24.15,24.38,23.96,24.19,2246799
12/01/2009,24.45,24.58,24.32,24.4,2272678
12/02/2009,24.42,24.86,24.29,24.63,2621504
12/03/2009,24.73,24.75,24.24,24.28,1964525
12/04/2009,24.62,24.69,24.3,24.57,5204145
12/07/2009,24.49,24.75,24.46,24.56,2382510
12/08/2009,24.37,24.42,23.88,23.93,2883933
12/09/2009,24,24.22,23.67,24.19,2470793
12/10/2009,24.31,24.48,23.9,24.02,3045402
12/11/2009,24.19,24.19,23.62,23.84,3526252
12/14/2009,23.98,24.33,23.88,24.29,2631444
12/15/2009,24.16,24.42,23.89,23.96,2528944
12/16/2009,24.1,24.27,24,24.13,2145743
12/17/2009,24.1,24.1,23.7,23.74,1573325
12/18/2009,23.91,23.98,23.47,23.56,3725393
12/21/2009,23.64,23.88,23.55,23.69,1649504
12/22/2009,23.83,24.05,23.71,23.98,1439592
12/23/2009,24.07,24.15,23.79,24.12,1513011
12/24/2009,24.16,24.32,24.12,24.25,400449
12/28/2009,24.22,24.49,24.16,24.36,2799466
12/29/2009,24.32,24.42,24.09,24.14,2110117
12/30/2009,24.03,24.29,23.92,24.11,1724640
12/31/2009,24.2,24.2,23.81,23.81,916039
01/04/2010,24.14,24.69,24.01,24.68,2871509
01/05/2010,24.59,24.89,24.59,24.71,2740578
01/06/2010,24.6,25.24,24.6,25.06,3679191
01/07/2010,24.97,25.19,24.79,25.17,2943104
01/08/2010,25.13,25.24,24.94,25.12,3294085
01/11/2010,25.19,25.24,24.95,25.09,2442152
01/12/2010,24.84,24.96,24.49,24.76,2689188
01/13/2010,24.91,25.04,24.6,25.02,2038195
01/14/2010,25.6,25.92,25.41,25.55,5431406
01/15/2010,25.54,25.63,25.1,25.25,3603316
01/19/2010,25.32,26.16,25.25,26.12,4056782
01/20/2010,25.99,26.1,25.35,25.71,5170168
01/21/2010,24.94,25.43,24.02,24.06,13233590
01/22/2010,24.14,24.81,23.98,24.4,7272916
01/25/2010,24.73,25.01,24.64,24.87,4331485
01/26/2010,24.71,24.95,24.36,24.41,3232425
01/27/2010,24.35,24.35,23.77,24.23,4005803
01/28/2010,24.35,24.35,23.52,24.03,3619507
01/29/2010,24.1,24.49,23.87,23.89,4862149
02/01/2010,24.13,24.24,23.96,24.22,3248673
02/02/2010,24.2,24.63,23.97,24.38,2657657
02/03/2010,24.04,24.57,23.96,24.1,3631859
02/04/2010,23.9,24,23.43,23.49,3531657
02/05/2010,23.46,23.81,23.19,23.74,5274869
02/08/2010,23.76,23.96,23.37,23.45,3649212
02/09/2010,23.76,24.23,23.59,24.08,3760798
02/10/2010,24.06,24.45,23.76,24.3,4351049
02/11/2010,24.25,24.59,24.03,24.52,3424917
02/12/2010,24.2,24.73,24.05,24.58,3600048
02/16/2010,24.83,25,24.64,24.99,2338749
02/17/2010,25.17,25.44,25.08,25.36,3433054
02/18/2010,25.36,25.57,25.24,25.5,2177862
02/19/2010,25.37,25.82,25.26,25.66,2299438
02/22/2010,25.68,25.76,25.35,25.51,2038764
02/23/2010,25.43,25.49,25.08,25.25,2397392
02/24/2010,25.35,25.66,25.18,25.5,2591480
02/25/2010,25.11,25.15,24.86,25.07,4571041
02/26/2010,25.05,25.36,24.99,25.28,2440359
03/01/2010,25.34,25.64,25.15,25.61,2460786
03/02/2010,25.73,25.82,25.51,25.68,3021965
03/03/2010,25.78,26.19,25.69,25.84,2968592
03/04/2010,25.79,26.04,25.67,25.84,2375215
03/05/2010,26.03,26.08,25.92,25.99,2809949
03/08/2010,26.05,26.18,25.95,26.1,2128860
03/09/2010,25.98,26.1,25.75,25.83,1916252
03/10/2010,25.87,26.28,25.59,26.14,3283435
03/11/2010,26.01,26.01,25.77,26,2327974
03/12/2010,26.23,26.55,26.13,26.35,2851048
03/15/2010,26.42,26.54,26.3,26.48,2084960
03/16/2010,26.51,26.6,26.32,26.54,2109799
03/17/2010,26.53,27.14,26.5,27.05,2864636
03/18/2010,26.99,26.99,26.49,26.58,3580239
03/19/2010,26.66,26.85,26.56,26.65,3786634
03/22/2010,26.44,26.94,26.32,26.88,2378136
03/23/2010,26.93,27.14,26.74,27.13,1448079
03/24/2010,26.95,27.07,26.7,26.88,2201391
03/25/2010,27.03,27.13,26.56,26.58,2560072
03/26/2010,26.67,27.25,26.64,27.14,3120325
03/29/2010,27.23,27.36,26.89,27,2199290
03/30/2010,27.06,27.27,26.81,27.11,1435974
03/31/2010,27.03,27.17,26.79,26.86,2733858
04/01/2010,27.09,27.32,27.09,27.29,1764192
04/05/2010,27.36,27.57,27.18,27.5,1628523
04/06/2010,27.47,27.87,27.45,27.77,2537361
04/07/2010,27.64,28.08,27.59,27.72,3041984
04/08/2010,27.61,27.93,27.46,27.89,3559111
04/09/2010,27.95,28.21,27.86,28.2,3548753
04/12/2010,28.25,28.35,28.16,28.3,3280086
04/13/2010,28.27,28.53,28.01,28.47,2624167
04/14/2010,28.47,28.57,28.23,28.56,4432368
04/15/2010,28.65,28.75,28.01,28.64,4977199
04/16/2010,28.65,28.85,28.19,28.41,4176368
04/19/2010,28.38,28.87,28.26,28.83,3994477
04/20/2010,28.9,29.07,28.69,28.9,2781908
04/21/2010,28.78,29.03,28.6,28.95,2105854
04/22/2010,28.76,28.86,28.49,28.86,4460388
04/23/2010,28.85,29.27,28.65,29.26,3298975
04/26/2010,29.26,29.49,29.03,29.05,2334267
04/27/2010,29.08,29.15,28.3,28.34,3637148
04/28/2010,28.47,28.79,28.27,28.73,3119581
04/29/2010,28.94,29.29,28.77,29.25,3136082
04/30/2010,29.34,29.67,28.9,28.92,3900085
05/03/2010,29.09,29.32,28.91,29.27,3543292
05/04/2010,28.92,29.06,27.86,28.12,4869730
05/05/2010,27.9,28.02,27.48,27.7,5375313
05/06/2010,27.59,27.88,25.21,26.81,5816717
05/07/2010,26.77,27.32,26.23,26.42,5583497
05/10/2010,27.66,27.83,27.22,27.78,3571827
05/11/2010,27.43,27.83,27.29,27.51,3423371
05/12/2010,27.66,28.02,27.48,27.99,2148881
05/13/2010,27.87,28.13,27.59,27.65,2161973
05/14/2010,27.37,27.45,26.72,26.96,2375861
05/17/2010,27.08,27.69,26.83,27.38,5174289
05/18/2010,27.6,28.18,27.15,27.18,4738619
05/19/2010,27.1,27.1,26.2,26.63,6246014
05/20/2010,26,26.17,25.49,25.49,7489217
05/21/2010,24.97,26.05,24.89,25.94,6337777
05/24/2010,25.86,25.89,25.47,25.48,5265766
05/25/2010,24.65,25.77,24.43,25.76,4699943
05/26/2010,26.01,26.01,25.44,25.63,7708948
05/27/2010,26.19,26.95,25.97,26.94,4573269
05/28/2010,26.86,26.93,26.45,26.51,4986385
06/01/2010,26.23,26.58,25.9,25.93,3719182
06/02/2010,26.03,26.81,26.01,26.81,4067233
06/03/2010,26.83,26.98,26.27,26.48,4198428
06/04/2010,25.75,26.11,25.5,25.57,4410114
06/07/2010,25.58,25.85,25.03,25.05,6039201
06/08/2010,25.07,25.8,24.96,25.73,6544800
06/09/2010,25.94,26.19,25.49,25.62,6574023
06/10/2010,26.03,26.37,25.94,26.24,5748558
06/11/2010,25.99,26.88,25.99,26.83,5543715
06/14/2010,27.04,27.16,26.5,26.54,4831150
06/15/2010,26.82,27.16,26.73,27.15,2577205
06/16/2010,28.36,28.36,27.44,27.55,6904445
06/17/2010,27.7,27.71,26.79,27.37,5327942
06/18/2010,27.38,27.86,27.38,27.6,4210253
06/21/2010,28.03,28.27,27.49,27.68,2768570
06/22/2010,27.72,27.85,27.12,27.15,3249886
06/23/2010,27.15,27.25,26.63,26.96,3426942
06/24/2010,26.75,26.77,26.08,26.14,3653518
06/25/2010,26.17,26.37,25.82,26.08,6239672
06/28/2010,26.17,26.29,25.83,26.04,2317034
06/29/2010,25.58,25.58,25.1,25.26,4215490
06/30/2010,25.25,25.68,24.94,24.99,2853001
07/01/2010,24.93,25.39,24.71,25.29,5755937
07/02/2010,25.34,25.54,24.81,25.06,2791197
07/06/2010,25.36,25.61,24.82,25.06,3744188
07/07/2010,25.01,26.11,24.97,26.1,3828702
07/08/2010,26.48,26.74,26.23,26.62,4189787
07/09/2010,26.55,26.94,26.47,26.77,2616815
07/12/2010,26.67,26.69,26.17,26.42,3971135
07/13/2010,26.63,27.16,26.59,27.03,4116861
07/14/2010,26.92,27.18,26.39,26.7,5060304
07/15/2010,26.71,27,26.33,26.73,3442723
07/16/2010,26.63,26.7,25.78,25.86,4036084
07/19/2010,26.01,26.14,25.49,25.73,4075137
07/20/2010,25.45,26.8,25.45,26.75,6576446
07/21/2010,26.97,27.12,26.59,26.81,4979549
07/22/2010,27.09,27.66,26.91,27.32,3651473
07/23/2010,27.32,28.04,27.25,28,3066904
07/26/2010,28.09,28.25,27.88,28.23,3970340
07/27/2010,28.5,28.79,28.36,28.46,6119751
07/28/2010,28.31,28.64,28.31,28.5,2968105
07/29/2010,28.64,28.88,28.09,28.48,3203172
07/30/2010,28.11,28.86,28.09,28.76,3078525
08/02/2010,29.03,29.51,28.98,29.43,3070383
08/03/2010,29.15,29.39,28.93,29,3014552
08/04/2010,29.1,29.37,29.06,29.33,2542013
08/05/2010,29.2,29.33,28.81,29.08,3452978
08/06/2010,28.95,29.25,28.6,29,3204000
08/09/2010,29.13,29.28,28.95,29.1,1922929
08/10/2010,28.89,29.13,28.64,28.93,2639590
08/11/2010,28.35,28.35,27.84,27.98,2739946
08/12/2010,27.46,27.96,27.44,27.87,2224055
08/13/2010,27.75,27.94,27.65,27.67,1712625
08/16/2010,27.47,27.87,27.31,27.74,1752026
08/17/2010,28.1,28.48,28.07,28.28,2707231
08/18/2010,28.26,28.26,27.83,28.05,2642930
08/19/2010,27.9,27.95,27.14,27.38,2876574
08/20/2010,27.12,27.35,27.01,27.28,2452664
08/23/2010,27.46,27.61,27.1,27.12,1471665
08/24/2010,26.84,27,26.72,26.8,3150552
08/25/2010,26.67,27.29,26.34,27.19,3905149
08/26/2010,27.34,27.72,27.19,27.27,2959977
08/27/2010,27.44,28,27.11,27.99,2521918
08/30/2010,27.84,27.92,27.32,27.32,2532270
08/31/2010,27.22,27.59,27.09,27.47,3167768
09/01/2010,27.89,28.54,27.75,28.43,2785432
09/02/2010,28.54,28.76,28.47,28.75,1637549
09/03/2010,28.98,29.3,28.98,29.18,2839212
09/07/2010,28.98,29.03,28.41,28.47,3446374
09/08/2010,28.49,28.99,28.46,28.86,2808703
09/09/2010,29.2,29.2,28.87,28.9,1715538
09/10/2010,29.02,29.63,29.01,29.52,4059341
09/13/2010,29.83,30.01,29.79,29.89,3607954
09/14/2010,29.72,29.88,29.61,29.77,3183986
09/15/2010,29.67,30,29.33,29.89,2805576
09/16/2010,29.74,30.17,29.67,30.14,3518457
09/17/2010,30.17,30.35,29.91,30.04,2976793
09/20/2010,30.2,30.43,30.04,30.34,3245167
09/21/2010,30.22,30.35,29.89,30.14,4128867
09/22/2010,30.07,30.42,30.07,30.09,3445657
09/23/2010,29.72,30.18,29.67,29.81,2368155
09/24/2010,30.26,30.54,30.07,30.4,2364380
09/27/2010,30.43,30.54,30.29,30.38,1597570
09/28/2010,30.48,30.59,29.89,30.5,3022907
09/29/2010,30.36,30.67,30.26,30.42,3265069
09/30/2010,30.67,30.87,30.18,30.32,4279614
10/01/2010,30.67,30.67,30.33,30.51,1463563
10/04/2010,30.36,30.49,30.09,30.16,3085842
10/05/2010,30.51,31.02,30.36,30.84,3319902
10/06/2010,30.78,31.28,30.78,31.19,2948447
10/07/2010,31.3,31.3,30.84,31.09,2234567
10/08/2010,31.09,31.48,31.07,31.37,1832265
10/11/2010,31.45,31.54,31.18,31.27,1754941
10/12/2010,31.14,31.57,30.99,31.52,2558162
10/13/2010,31.65,31.97,31.65,31.81,2566810
10/14/2010,31.79,31.94,31.66,31.83,3571633
10/15/2010,32.15,32.27,31.64,32.05,3652968
10/18/2010,32.07,32.16,31.88,32.08,2347062
10/19/2010,31.63,32.04,31.4,31.63,3120757
10/20/2010,31.68,32.53,31.46,32.35,3019471
10/21/2010,31.92,32.28,31.69,31.97,3944081
10/22/2010,32.29,32.29,31.82,31.9,2597024
10/25/2010,32.09,32.55,31.97,32.29,2797915
10/26/2010,32.01,32.41,31.82,32.26,3008028
10/27/2010,31.84,32.08,31.65,32.04,2405302
10/28/2010,32.22,32.38,31.75,31.97,2244220
10/29/2010,31.83,32.2,31.75,32.01,2317246
11/01/2010,32.18,32.49,31.82,32,3397421
11/02/2010,32.25,32.61,32.25,32.41,2310902
11/03/2010,32.42,32.64,32.09,32.5,2719145
11/04/2010,32.84,33.14,32.77,33.01,2810903
11/05/2010,32.99,33.32,32.82,33.24,2982701
11/08/2010,33.18,33.35,33.05,33.24,2461247
11/09/2010,33.28,33.37,32.75,32.9,2032781
11/10/2010,32.83,32.91,32.4,32.78,3472863
11/11/2010,32.51,32.98,32.41,32.82,2601561
11/12/2010,32.46,32.69,32.1,32.27,2406808
11/15/2010,32.32,32.72,32.24,32.29,2718435
11/16/2010,32.06,32.09,31.52,31.77,3640143
11/17/2010,31.8,32.2,31.66,31.95,2604636
11/18/2010,32.4,32.78,32.36,32.58,2343579
11/19/2010,32.53,32.66,32.32,32.49,2241386
11/22/2010,32.32,32.59,31.94,32.5,1770194
11/23/2010,32.06,32.11,31.66,31.9,2050980
11/24/2010,32.11,32.7,32.11,32.69,1791845
11/26/2010,32.34,32.77,32.3,32.6,1462025
11/29/2010,32.35,32.75,32.02,32.69,3024738
11/30/2010,32.36,32.98,32.25,32.76,4821363
12/01/2010,33.24,33.59,33.19,33.53,2761709
12/02/2010,33.52,33.74,33.41,33.71,2964477
12/03/2010,33.53,34.03,33.48,33.95,2373725
12/06/2010,33.79,33.82,33.52,33.61,2238039
12/07/2010,33.94,34.03,33.75,33.82,2847628
12/08/2010,33.78,33.95,33.45,33.56,2373753
12/09/2010,33.71,33.71,33.41,33.63,2105273
12/10/2010,33.79,34,33.69,33.98,2263274
12/13/2010,34.03,34.16,33.81,33.83,2849367
12/14/2010,33.91,34.29,33.82,34.15,2448787
12/15/2010,34.1,34.7,34.1,34.5,3299149
12/16/2010,34.45,34.45,34.04,34.24,4136539
12/17/2010,34.3,34.52,34.05,34.43,5470418
12/20/2010,34.43,34.66,34.36,34.62,2025563
12/21/2010,34.66,34.85,34.62,34.66,2338714
12/22/2010,34.76,34.81,34.55,34.72,1195713
12/23/2010,34.71,34.87,34.64,34.8,1148287
12/27/2010,34.63,34.96,34.58,34.9,1247467
12/28/2010,34.85,35.32,34.85,35.25,2299459
12/29/2010,35.23,35.49,35.23,35.4,1726227
12/30/2010,35.27,35.41,35.12,35.25,1875666
12/31/2010,35.24,35.54,35.16,35.34,1793423
01/03/2011,35.51,35.74,35.43,35.57,2211320
01/04/2011,35.57,35.58,34.83,35.06,2787085
01/05/2011,34.99,35.35,34.89,35.28,2886243
01/06/2011,35.24,35.29,35.02,35.12,3102073
01/07/2011,34.9,35.1,34.37,34.59,3942472
01/10/2011,34.49,34.82,34.08,34.69,3546074
01/11/2011,34.72,34.87,34.41,34.48,2774834
01/12/2011,34.69,34.95,34.63,34.88,1887841
01/13/2011,34.69,34.91,34.61,34.69,1576930
01/14/2011,34.76,35.01,34.55,34.93,2046484
01/18/2011,35,35.11,34.89,34.97,2537035
01/19/2011,34.98,35.05,34.5,34.79,4066054
01/20/2011,33.82,34.41,33.09,34.18,6912462
01/21/2011,34.49,34.85,34.37,34.53,4121827
01/24/2011,34.56,35.02,34.49,34.99,3674556
01/25/2011,34.93,35.28,34.77,35.12,2779010
01/26/2011,35.29,35.9,35.18,35.61,3272080
01/27/2011,35.29,35.51,35.07,35.27,2994400
01/28/2011,35.39,35.86,34.85,34.96,5264857
01/31/2011,35.06,35.71,35.02,35.42,5093961
02/01/2011,35.62,36.23,35.61,36.13,3639518
02/02/2011,35.93,36.06,35.68,35.77,1956061
02/03/2011,35.74,36.08,35.47,35.97,2129521
02/04/2011,35.97,36.15,35.69,36.08,1547733
02/07/2011,36.16,36.5,36.08,36.18,3670179
02/08/2011,36.17,36.51,36.15,36.44,2075643
02/09/2011,36.26,36.41,35.99,36.32,1978047
02/10/2011,36.16,36.89,36.06,36.75,2450904
02/11/2011,36.6,37.27,36.56,37.14,2417183
02/14/2011,37.14,37.34,37.08,37.18,2424683
02/15/2011,37.09,37.35,36.98,37.12,3032335
02/16/2011,37.28,37.64,37.26,37.5,2766870
02/17/2011,37.45,37.88,37.35,37.82,1981884
02/18/2011,38.02,38.2,37.68,38.11,3153620
02/22/2011,37.52,37.69,36.76,36.8,3226662
02/23/2011,36.82,37.08,36,36.6,4104343
02/24/2011,36.53,36.89,35.81,36.35,3031359
02/25/2011,36.67,37.1,36.49,36.97,3174052
02/28/2011,37.03,37.52,37.02,37.38,3092761
03/01/2011,37.57,37.7,37.06,37.09,4303196
03/02/2011,36.96,37.49,36.95,37.21,3648154
03/03/2011,37.59,37.98,37.58,37.95,2430653
03/04/2011,37.84,37.97,37.16,37.44,2610993
03/07/2011,37.6,37.9,36.73,37.03,3426651
03/08/2011,37.15,37.69,36.86,37.57,1902204
03/09/2011,37.42,37.55,36.94,37.22,2038451
03/10/2011,36.87,36.91,36.36,36.54,3178535
03/11/2011,36.37,37.21,36.34,37,2843110
03/14/2011,36.89,37.28,36.68,37.14,2132043
03/15/2011,36.06,36.97,35.94,36.71,3535957
03/16/2011,36.47,36.81,35.81,36.17,4260842
03/17/2011,36.79,37.5,36.69,36.84,4833592
03/18/2011,37.45,37.61,36.95,36.98,4676608
03/21/2011,37.57,37.61,37.29,37.45,3308004
03/22/2011,37.61,37.62,37.19,37.25,2392025
03/23/2011,37.11,37.46,36.78,37.34,2245051
03/24/2011,37.54,37.62,37.17,37.5,1486295
03/25/2011,37.63,38.05,37.54,37.82,2221423
03/28/2011,37.98,38.05,37.74,37.78,2272536
03/29/2011,37.79,38.32,37.63,38.31,3116132
03/30/2011,39.75,40.83,39.62,40.57,11011751
03/31/2011,40.39,40.57,40.22,40.26,4500951
04/01/2011,40.39,40.82,40.02,40.19,3624579
04/04/2011,40.25,40.91,40.24,40.8,3363260
04/05/2011,40.66,41.35,40.37,40.75,3042198
04/06/2011,40.97,41.08,40.68,40.77,2626416
04/07/2011,40.75,41,40.4,40.63,2360626
04/08/2011,40.76,40.89,39.98,40.31,2098422
04/11/2011,40.37,40.59,39.96,40.13,1826297
04/12/2011,39.8,40.06,39.52,39.64,2267949
04/13/2011,39.87,39.93,38.73,39.02,4138944
04/14/2011,38.9,39.27,38.78,39.13,3017650
04/15/2011,39.28,39.33,38.83,39.18,4084205
04/18/2011,38.66,38.78,38.11,38.64,3152449
04/19/2011,38.69,39.4,38.64,39.38,2635592
04/20/2011,39.93,40.15,39.57,39.99,3797994
04/21/2011,40,40.48,39.71,40.03,2534725
04/25/2011,40.12,40.17,39.41,39.5,1879775
04/26/2011,39.78,40.03,39.56,39.73,1910919
04/27/2011,39.83,39.87,39.08,39.57,2632069
04/28/2011,39.56,39.87,39.52,39.79,1459799
04/29/2011,39.99,40.05,39.63,40.01,2593636
05/02/2011,40.17,40.37,39.75,39.8,1770700
05/03/2011,39.85,39.91,38.62,38.92,2945611
05/04/2011,38.91,39.11,37.96,38.21,2726507
05/05/2011,38.04,38.63,37.96,38.15,2784523
05/06/2011,38.76,39.11,38.27,38.46,3373822
05/09/2011,38.51,38.98,38.41,38.86,1747473
05/10/2011,39.03,39.28,38.85,39.06,1838103
05/11/2011,39.05,39.06,38.12,38.29,2639685
05/12/2011,38.27,38.31,37.67,38.17,2688495
05/13/2011,38.09,38.31,37.37,37.64,2396174
05/16/2011,37.53,38.17,37.4,37.71,2669603
05/17/2011,37.58,37.66,36.95,37.19,3371409
05/18/2011,37.33,37.97,37.11,37.91,2575751
05/19/2011,38.09,38.33,37.59,37.84,1834776
05/20/2011,37.82,37.82,37.02,37.46,2014551
05/23/2011,36.99,37.02,36.62,36.86,2476123
05/24/2011,36.99,37.25,36.49,36.57,2383679
05/25/2011,36.42,37.29,36.42,37.15,2373232
05/26/2011,37.1,37.3,36.76,37.08,2206979
05/27/2011,37.26,37.57,37.18,37.35,1456450
05/31/2011,37.69,37.84,37.35,37.76,2187423
06/01/2011,37.63,37.72,36.9,36.91,2652487
06/02/2011,36.86,37.29,36.47,36.66,2353685
06/03/2011,36.15,36.29,35.91,36.14,2564631
06/06/2011,36.12,36.35,35.76,35.78,1646243
06/07/2011,36.11,36.7,36.04,36.43,3577161
06/08/2011,36.26,36.27,35.85,35.93,2519081
06/09/2011,36.03,36.49,35.89,36.28,1682484
06/10/2011,36.19,36.2,35.72,35.79,2494278
06/13/2011,35.85,35.98,35.49,35.68,2367896
06/14/2011,36.11,36.54,36.11,36.39,1621182
06/15/2011,35.94,36.15,35.42,35.74,2778931
06/16/2011,35.62,36.03,35.21,35.78,2907623
06/17/2011,36.05,36.28,35.86,36.06,3934082
06/20/2011,35.95,36.48,35.91,36.37,1776631
06/21/2011,36.6,37.4,36.52,37.32,2089171
06/22/2011,37.33,37.7,37.11,37.33,2607930
06/23/2011,36.68,37.05,36.27,37.03,2890173
06/24/2011,37.09,37.19,36.71,37.12,6447789
06/27/2011,36.89,37.23,36.35,37.01,3079622
06/28/2011,37.23,37.64,36.96,37.63,3052971
06/29/2011,37.78,38.03,37.41,37.95,2666064
06/30/2011,38.09,38.71,37.94,38.62,2522947
07/01/2011,38.71,39.15,38.48,39.06,1811860
07/05/2011,38.98,39.04,38.72,38.92,2272845
07/06/2011,39.06,39.74,38.97,39.38,3971365
07/07/2011,39.79,39.93,39.61,39.73,2495957
07/08/2011,39.16,39.24,38.88,39.18,3341874
07/11/2011,38.54,38.79,38.23,38.42,2464366
07/12/2011,38.3,38.59,38.17,38.23,2586567
07/13/2011,38.48,38.69,38.17,38.26,2675989
07/14/2011,38.15,38.4,37.57,37.62,3969305
07/15/2011,37.81,38.19,37.69,38.15,2714458
07/18/2011,38.08,38.08,37.52,37.73,3171431
07/19/2011,37.95,38.26,37.86,37.98,3190907
07/20/2011,38.05,38.16,37.74,38.02,1978437
07/21/2011,38.95,39,38.19,38.27,3282885
07/22/2011,38.29,38.54,37.73,37.84,3370582
07/25/2011,37.51,38.17,37.35,37.67,3472559
07/26/2011,37.65,37.66,36.77,36.84,3977588
07/27/2011,36.68,36.82,36.13,36.17,2954997
07/28/2011,36.31,36.75,35.92,35.99,2839559
07/29/2011,35.49,36.13,35.34,35.83,2915708
08/01/2011,36.35,36.47,35.24,35.7,3486822
08/02/2011,35.48,35.82,34.76,34.77,4300456
08/03/2011,35.01,35.21,33.89,35.16,6088774
08/04/2011,34.68,34.68,32.99,33,6456717
08/05/2011,33.68,33.87,32.44,33.13,7144547
08/08/2011,32.45,32.84,30.86,31.26,7955369
08/09/2011,31.82,33.23,31.25,33.21,6340047
08/10/2011,32.3,32.52,31.25,31.29,5848107
08/11/2011,31.45,32.47,31.27,32.1,7566569
08/12/2011,32.64,32.7,32.04,32.17,5839017
08/15/2011,32.42,32.86,32.21,32.85,4579694
08/16/2011,32.47,32.58,31.9,32.21,3324623
08/17/2011,32.43,32.91,32.05,32.26,2959843
08/18/2011,31.35,31.4,29.94,30.18,5323593
08/19/2011,29.9,30.53,29.49,29.53,4743231
08/22/2011,30.15,30.35,29.45,29.55,3119733
08/23/2011,29.68,30.49,29.52,30.48,3373167
08/24/2011,30.35,30.86,30.13,30.82,2615189
08/25/2011,31.01,31.18,30.3,30.45,2113412
08/26/2011,30.57,31.15,29.64,31,3170702
08/29/2011,31.44,32.37,31.41,32.35,3095035
08/30/2011,32.22,32.98,32.11,32.8,3738460
08/31/2011,33.02,33.28,32.61,32.82,3755716
09/01/2011,32.88,33.07,32.13,32.15,3909172
09/02/2011,31.5,31.72,31.44,31.54,5227698
09/06/2011,30.66,31.4,30.56,31.36,5277267
09/07/2011,31.86,32.16,31.85,32.14,5572218
09/08/2011,31.95,32.33,31.87,32.07,5693302
09/09/2011,31.68,31.71,31.14,31.33,5103602
09/12/2011,30.98,31.48,30.66,31.35,4232077
09/13/2011,31.55,32.11,31.34,32.01,3035197
09/14/2011,32.22,32.97,31.64,32.58,3652977
09/15/2011,32.91,33.31,32.79,33.2,2259691
09/16/2011,33.38,33.76,33.23,33.72,4217162
09/19/2011,33,33.43,32.58,33.29,4104139
09/20/2011,33.49,33.92,33.01,33.23,3586224
09/21/2011,33.17,33.27,31.5,31.51,3965236
09/22/2011,30.48,30.53,29.54,30.02,5014261
09/23/2011,29.79,30.26,29.26,29.49,5011847
09/26/2011,29.82,31.08,29.36,31.06,4796343
09/27/2011,31.92,32.64,31.54,31.96,5064095
09/28/2011,32.02,32.08,30.63,30.68,3666171
09/29/2011,31.78,31.78,30.43,31.01,3826551
09/30/2011,30.46,30.94,30.22,30.29,4160573
10/03/2011,30,30.67,29.43,29.43,5306786
10/04/2011,29,30.33,28.48,30.31,4261002
10/05/2011,30.5,31.33,30.09,31.2,3272666
10/06/2011,31.03,31.64,30.52,31.59,3674887
10/07/2011,31.65,32,31.05,31.47,2825883
10/10/2011,32.14,32.85,32.13,32.76,2060755
10/11/2011,32.62,32.93,32.43,32.66,2057754
10/12/2011,32.97,33.62,32.97,33.33,2584730
10/13/2011,32.9,33.4,32.65,33.3,2599509
10/14/2011,33.79,34.22,33.49,34.17,1996205
10/17/2011,34.11,34.24,33.23,33.35,2786955
10/18/2011,33.3,34.8,33.12,34.6,2987852
10/19/2011,34.5,34.72,33.56,33.79,3747224
10/20/2011,34.36,34.69,33.56,34.59,3575657
10/21/2011,35.13,35.9,35.02,35.88,3791612
10/24/2011,35.99,36.37,35.83,36.17,4780839
10/25/2011,36.05,36.28,35.32,35.38,2822673
10/26/2011,36.04,36.61,35.47,36.37,2971930
10/27/2011,37.35,38.56,37.06,38.13,3840100
10/28/2011,37.81,38.58,37.63,38.3,3187289
10/31/2011,37.63,37.75,37.03,37.04,2986127
11/01/2011,35.61,37.14,35.61,36.26,3379108
11/02/2011,36.71,37.44,36.58,37.18,1778675
11/03/2011,37.72,38.13,37.19,38,2093532
11/04/2011,37.76,38.06,37.1,37.96,1564597
11/07/2011,38.03,38.3,37.33,38.13,1784125
11/08/2011,38.3,38.65,37.76,38.58,1725750
11/09/2011,37.45,37.62,36.58,36.83,3217658
11/10/2011,37.23,37.52,36.7,37.22,2366200
11/11/2011,37.81,38.21,37.79,38.01,2040725
11/14/2011,37.87,38,37.37,37.66,2489422
11/15/2011,37.47,37.96,37.23,37.69,2145744
11/16/2011,37.04,37.45,36.59,36.63,3507559
11/17/2011,36.54,36.9,35.36,35.68,3875099
11/18/2011,35.95,36.35,35.63,36.07,2167918
11/21/2011,35.54,35.57,34.99,35.31,3090116
11/22/2011,35.16,35.64,34.79,35.05,3955473
11/23/2011,34.64,34.8,34.25,34.34,2129883
11/25/2011,34.18,34.68,34.11,34.29,744185
11/28/2011,35.5,35.91,35.35,35.64,2175230
11/29/2011,36.26,36.26,35.61,35.84,2940027
11/30/2011,37.07,37.87,37.06,37.82,2963171
12/01/2011,37.61,37.87,37.17,37.33,2196462
12/02/2011,37.32,37.52,36.49,36.61,3527041
12/05/2011,37.28,37.55,36.51,36.75,3329483
12/06/2011,36.79,37.21,36.45,36.87,2214251
12/07/2011,36.74,36.86,36.29,36.54,3415649
12/08/2011,36.4,36.47,35.56,35.65,3275199
12/09/2011,35.2,36.39,35.03,36.19,3412581
12/12/2011,35.72,35.78,35.33,35.61,2196379
12/13/2011,35.9,36.27,34.83,35.09,3383308
12/14/2011,34.87,35.09,34.46,34.6,3315083
12/15/2011,35.12,35.2,34.35,34.56,3258417
12/16/2011,34.9,35.43,34.6,34.9,3369542
12/19/2011,34.94,35.13,33.99,34.13,2533204
12/20/2011,34.53,35.1,34.49,34.85,4646713
12/21/2011,35.01,35.47,34.74,35.45,2452159
12/22/2011,35.49,35.65,35.25,35.53,3256351
12/23/2011,35.61,36.04,35.53,36.03,1406394
12/27/2011,35.94,36.43,35.88,36.23,1201612
12/28/2011,36.29,36.34,35.65,35.72,1618854
12/29/2011,35.74,36.26,35.57,36.24,1429752
12/30/2011,36.29,36.34,36.02,36.02,1255240
01/03/2012,36.8,37.22,36.65,36.69,1696592
01/04/2012,36.71,36.96,36.49,36.81,1683717
01/05/2012,36.45,36.51,35.92,36.44,2648448
01/06/2012,36.44,36.64,36.34,36.57,1447859
01/09/2012,36.58,36.66,36.2,36.38,1978849
01/10/2012,36.85,37.38,36.8,37.15,1774085
01/11/2012,37.01,37.36,37.01,37.36,1841280
01/12/2012,37.42,38,37.29,37.96,1580538
01/13/2012,37.69,37.97,37.28,37.74,1662710
01/17/2012,38.28,38.41,37.79,37.95,1581986
01/18/2012,38.08,38.82,38,38.75,2421183
01/19/2012,38.57,38.57,37.42,37.86,4607880
01/20/2012,37.83,38.48,37.83,38.36,2602815
01/23/2012,38.33,38.39,37.97,38.11,1572669
01/24/2012,37.75,38.23,37.64,38.17,2078432
01/25/2012,38,38.69,37.81,38.58,1581607
01/26/2012,38.8,39.21,38.18,38.34,2164617
01/27/2012,38.28,38.62,37.99,38.44,1826004
01/30/2012,37.98,38.65,37.79,38.6,1853694
01/31/2012,38.74,38.83,38.19,38.65,2306789
02/01/2012,39.14,39.53,38.96,39.19,2560320
02/02/2012,39.25,39.25,38.7,38.75,1522281
02/03/2012,39.24,39.5,39.13,39.33,2532494
02/06/2012,39.12,39.24,39.01,39.2,1127377
02/07/2012,39.07,39.43,38.82,39.36,1477875
02/08/2012,39.36,39.56,38.99,39.54,1417832
02/09/2012,39.52,39.73,39.33,39.7,2137230
02/10/2012,39.33,39.33,38.9,39.18,1718534
02/13/2012,39.43,39.62,39.18,39.29,1197560
02/14/2012,39.27,39.42,38.69,39.05,2248074
02/15/2012,39.34,39.34,38.79,39.05,1848154
02/16/2012,39.1,39.73,39.03,39.67,1617740
02/17/2012,39.88,40.14,39.74,40,1847623
02/21/2012,39.64,40.07,39.46,39.92,3170095
02/22/2012,39.93,40.44,39.82,39.85,2356123
02/23/2012,39.81,40.16,39.71,40.03,1161891
02/24/2012,39.94,40.18,39.72,39.8,1461170
02/27/2012,39.59,40.45,39.38,40.34,2041796
02/28/2012,40.28,40.67,40.09,40.34,2415951
02/29/2012,40.34,40.43,39.48,39.61,2653306
03/01/2012,39.72,40.37,39.72,40.22,1869018
03/02/2012,40.35,40.55,39.99,40.16,1280871
03/05/2012,40.01,40.07,39.59,39.74,1446076
03/06/2012,39.17,39.49,39.09,39.27,1790894
03/07/2012,39.35,39.48,39.1,39.32,2251857
03/08/2012,39.73,40.54,39.68,40.35,2374124
03/09/2012,40.37,40.65,40.2,40.28,1718031
03/12/2012,40.36,40.65,40.24,40.42,1498334
03/13/2012,40.68,40.99,40.53,40.95,1972014
03/14/2012,40.89,41.06,40.48,40.66,1757411
03/15/2012,40.76,40.8,40.49,40.66,2329340
03/16/2012,40.84,41.03,40.52,40.62,3072447
03/19/2012,40.53,41.14,40.53,41,4102461
03/20/2012,40.7,40.89,40.51,40.78,2778742
03/21/2012,40.76,41.09,40.54,40.87,1802841
03/22/2012,40.63,40.64,40.19,40.37,1615041
03/23/2012,40.41,40.88,40.1,40.66,1714794
03/26/2012,40.95,41.42,40.73,41.41,1747729
03/27/2012,41.49,41.82,41.43,41.57,1760211
03/28/2012,41.57,41.85,40.97,41.16,2651435
03/29/2012,40.81,41.6,40.81,41.56,2372844
03/30/2012,41.85,41.85,41.42,41.59,1586672
04/02/2012,41.52,42.46,41.5,42.4,3550754
04/03/2012,42.21,42.27,41.03,41.55,4968730
04/04/2012,41.23,41.26,40.69,40.77,5035762
04/05/2012,42.41,42.78,41.37,41.79,12221475
04/09/2012,41.23,41.52,40.9,40.91,6453840
04/10/2012,40.85,40.97,39.87,39.97,7403081
04/11/2012,40.51,41.19,40.43,41.04,3443640
04/12/2012,41.14,42.16,41,42.04,3840944
04/13/2012,41.82,41.94,41.5,41.56,3236178
04/16/2012,42.21,42.32,41.46,42.07,2842701
04/17/2012,42.36,42.87,42.22,42.68,2807622
04/18/2012,42.39,42.93,42.18,42.77,3629199
04/19/2012,42.97,44.24,42.28,43.87,8324871
04/20/2012,43.98,44.36,43.54,43.98,4595271
04/23/2012,43.67,43.86,43.15,43.84,3844143
04/24/2012,43.94,44.35,43.89,44.26,4121764
04/25/2012,44.57,45.27,44.45,45.22,2673845
04/26/2012,45.02,45.94,44.89,45.67,2838164
04/27/2012,45.9,46.07,45.61,45.88,1866968
04/30/2012,45.97,46.19,45.54,45.69,2367558
05/01/2012,45.61,46.74,45.58,46.47,3159277
05/02/2012,46.12,46.59,46.06,46.53,2757860
05/03/2012,46.45,46.86,46.26,46.52,2477149
05/04/2012,46.28,46.34,45.77,45.89,2697665
05/07/2012,45.59,46.47,45.56,46.41,2295785
05/08/2012,46.27,46.6,45.81,46.51,2826558
05/09/2012,45.79,46.58,45.52,46.25,3345847
05/10/2012,46.71,46.71,46.05,46.16,2139276
05/11/2012,45.92,46.44,45.8,45.91,2310706
05/14/2012,45.4,45.62,44.95,45.02,3226350
05/15/2012,44.88,45.23,44.47,44.61,2935066
05/16/2012,44.71,45.16,44.36,44.38,1812875
05/17/2012,44.53,44.59,43.12,43.15,3002129
05/18/2012,43.51,43.54,42.38,42.56,3073929
05/21/2012,42.84,43.53,42.62,43.47,2151311
05/22/2012,43.65,43.97,43.1,43.34,1888663
05/23/2012,42.94,44.2,42.72,44,3637443
05/24/2012,45.34,45.66,44.63,45.49,4646754
05/25/2012,45.31,45.68,44.81,45.04,2133356
05/29/2012,45.67,46.25,45.52,45.88,2238728
05/30/2012,45.44,45.49,44.4,44.63,3301622
05/31/2012,44.71,45.46,44.23,45.15,2862896
06/01/2012,43.82,44.31,43.1,43.2,3370146
06/04/2012,43.18,43.22,42.23,42.67,3208599
06/05/2012,42.49,43.29,42.48,43.2,2192553
06/06/2012,43.61,44.44,43.6,44.44,2095924
06/07/2012,45.21,45.6,44.7,44.79,4101126
06/08/2012,44.71,45.32,44.43,45.24,1329439
06/11/2012,45.75,45.8,44.44,44.45,2202424
06/12/2012,44.73,45.51,44.45,45.48,1626425
06/13/2012,45.13,45.24,44.34,44.49,1480525
06/14/2012,44.54,44.72,43.92,44.42,2479139
06/15/2012,44.74,45.51,44.61,45.46,2280205
06/18/2012,45.2,45.79,45.11,45.74,1322608
06/19/2012,45.94,46.57,45.93,46.36,1772237
06/20/2012,46.29,46.66,45.98,46.29,1580561
06/21/2012,46.32,46.46,44.64,44.69,1942796
06/22/2012,45.32,45.72,44.68,45.5,3758335
06/25/2012,45.06,45.06,44.17,44.26,2925195
06/26/2012,44.44,45.16,44.16,44.9,2350472
06/27/2012,44.68,45.37,44.68,45.16,1668860
06/28/2012,44.97,45.26,44.37,45.18,2420419
06/29/2012,45.93,46.35,45.76,46.35,1707182
07/02/2012,46.41,46.41,45.21,45.6,2000593
07/03/2012,45.61,45.94,45.37,45.78,1216292
07/05/2012,45.57,46.33,45.41,46.05,1402133
07/06/2012,45.48,46.23,45.34,46.09,2017877
07/09/2012,46,46.09,44.96,45.13,2316640
07/10/2012,45.18,45.59,44.36,44.59,1393416
07/11/2012,44.6,44.61,43.58,44.05,3164033
07/12/2012,43.61,44.2,43.27,43.96,1700610
07/13/2012,44.8,45.16,44.21,45.1,2308655
07/16/2012,44.92,45.13,44.35,44.58,1363481
07/17/2012,44.78,45.54,44.49,45.46,2050174
07/18/2012,45.17,45.78,45.17,45.48,1909376
07/19/2012,47.69,48.97,46.64,48.88,9511905
07/20/2012,48.26,50.04,47.78,49.71,6648433
07/23/2012,48.41,49.11,48.09,48.35,4381452
07/24/2012,48.47,48.47,46.98,47.39,2988238
07/25/2012,47.62,47.87,46.84,46.93,2972656
07/26/2012,47.93,47.93,47.11,47.24,2699709
07/27/2012,47.58,48.32,47.49,48.21,2755548
07/30/2012,48.13,48.83,48.06,48.46,1596951
07/31/2012,48.38,48.52,47.75,47.78,2131727
08/01/2012,47.94,48.5,47.17,47.18,2080773
08/02/2012,46.82,47.16,46.22,46.99,2330037
08/03/2012,47.8,47.88,47.34,47.67,2366662
08/06/2012,47.63,48.26,47.51,48,2326316
08/07/2012,48.3,48.79,47.89,48.68,2336832
08/08/2012,48.45,48.93,47.68,48.79,2116485
08/09/2012,48.6,49.1,48.47,48.88,1108895
08/10/2012,48.6,48.63,48.2,48.62,1470103
08/13/2012,48.64,48.71,47.9,48.34,1040132
08/14/2012,48.38,48.63,47.46,47.59,1937216
08/15/2012,47.53,48.08,47.38,48,1053222
08/16/2012,48.17,48.4,47.77,48.29,971062
08/17/2012,48.52,48.56,48.3,48.38,1394897
08/20/2012,48.2,48.36,47.75,47.91,1547983
08/21/2012,47.91,48.07,47.03,47.16,2005949
08/22/2012,46.94,48.74,46.9,48.74,2757303
08/23/2012,48.52,48.58,47.72,47.84,2295827
08/24/2012,47.82,48.05,47.47,47.9,1513142
08/27/2012,48.06,48.19,47.64,48.01,2083458
08/28/2012,47.82,47.99,47.68,47.78,1526328
08/29/2012,47.86,48.23,47.51,48.15,1620275
08/30/2012,47.94,48.09,47.52,47.62,1768563
08/31/2012,48.02,48.39,47.66,48.27,1428427
09/04/2012,48.14,48.27,47.24,47.47,1741939
09/05/2012,47.57,47.82,47.15,47.75,1643410
09/06/2012,48.09,49.6,47.99,49.57,2793613
09/07/2012,49.59,49.9,48.73,49.66,2993925
09/10/2012,50.35,51.25,50.18,50.83,3493367
09/11/2012,50.88,51.12,50.38,50.86,2105777
09/12/2012,51.01,51.28,50.59,50.81,2212093
09/13/2012,50.83,52.51,50.82,52.04,2769011
09/14/2012,52.13,52.6,51.85,52.16,2802142
09/17/2012,51.87,52.24,51.69,52,1458939
09/18/2012,52.01,52.01,51.26,51.55,1598615
09/19/2012,51.53,51.76,51.01,51.46,1636445
09/20/2012,51.07,51.99,50.91,51.95,2461806
09/21/2012,52.35,52.36,51.51,51.59,2780806
09/24/2012,51.35,51.5,50.94,51.24,1270463
09/25/2012,51.45,51.54,50.47,50.48,1492246
09/26/2012,50.49,50.82,50.07,50.29,1393110
09/27/2012,50.48,50.93,50.16,50.57,1130664
09/28/2012,50.14,50.56,49.67,50.4,1144468
10/01/2012,50.59,51.04,50.36,50.71,1734137
10/02/2012,50.81,50.87,50.03,50.3,972628
10/03/2012,50.2,51.19,50.1,51.18,1949941
10/04/2012,51.25,51.63,50.98,51.37,1623463
10/05/2012,51.88,51.97,51.36,51.76,1757263
10/08/2012,51.58,51.8,51.07,51.65,1442484
10/09/2012,51.63,51.63,50.72,50.78,1199443
10/10/2012,50.51,50.89,50.21,50.64,1720357
10/11/2012,51.11,51.38,50.68,50.69,1147913
10/12/2012,50.73,50.97,49.76,50.13,1641729
10/15/2012,50.19,51.02,49.92,50.97,1384614
10/16/2012,51.34,52.18,50.88,51.71,2024484
10/17/2012,51.81,52.66,51.54,52.21,2557666
10/18/2012,52.17,52.66,51.61,52.28,2141192
10/19/2012,52.42,52.51,51.32,51.7,2063327
10/22/2012,51.49,51.93,51.05,51.65,851663
10/23/2012,50.28,51.04,49.9,50.71,1629331
10/24/2012,51.04,51.67,50.88,51.41,1771916
10/25/2012,51.77,51.79,50.69,50.94,1432907
10/26/2012,50.92,51.18,50.53,50.97,1169619
10/31/2012,51.1,51.56,50.89,51.38,1655902
11/01/2012,52.08,53.51,51.51,53.46,2090333
11/02/2012,53.95,56.36,52.61,52.64,1495232
11/05/2012,52.59,53.49,52.34,53.44,1099545
11/06/2012,53.58,54.31,53.42,54.05,1375721
11/07/2012,53.91,54.06,52.78,53.2,1468020
11/08/2012,53.21,53.52,51.85,51.86,1857894
11/09/2012,51.76,52.28,51.49,51.82,1474747
11/12/2012,51.96,52.3,51.48,51.81,2080592
11/13/2012,51.36,52.26,51.28,51.8,1208950
11/14/2012,51.96,52.09,51.15,51.28,2022666
11/15/2012,51.27,51.62,50.36,50.82,1684001
11/16/2012,50.88,51.05,50.19,50.99,1674172
11/19/2012,51.72,53.15,51.72,52.94,2189273
11/20/2012,52.84,53.62,52.5,53.59,2172834
11/21/2012,53.59,53.77,53.31,53.68,1345718
11/23/2012,54.03,54.44,53.83,54.41,479025
11/26/2012,54.03,54.33,53.87,54.25,1591194
11/27/2012,54.12,54.29,53.8,53.98,2850746
11/28/2012,53.43,53.88,52.89,53.76,3225466
11/29/2012,53.03,54.28,53.03,54.09,2152423
11/30/2012,54.07,55.06,53.78,54.81,3312963
12/03/2012,55.12,55.12,53.26,53.32,3578054
12/04/2012,53.36,53.73,52.65,53.05,2783422
12/05/2012,53.01,53.45,52.49,52.68,3369375
12/06/2012,52.77,54.39,52.37,54.32,3125359
12/07/2012,54.04,54.39,52.97,53.52,3596815
12/10/2012,53.43,54.85,53.37,54.61,2445365
12/11/2012,54.79,55.43,54.56,55.16,3042244
12/12/2012,55.46,55.46,54.77,54.92,3076718
12/13/2012,55,55.5,54.79,55.22,3341623
12/14/2012,57.37,58.6,56.49,57.29,7610775
12/17/2012,57.57,58.12,56.76,57.41,4149662
12/18/2012,57.67,58.76,57.43,58.42,4401245
12/19/2012,58.37,58.53,57.84,57.86,2885494
12/20/2012,58.21,59.31,58.16,59.26,2929998
12/21/2012,58.57,59.2,58.35,58.77,6495566
12/24/2012,58.61,59.76,58.38,59.63,2079720
12/26/2012,60.06,60.07,59.41,59.42,2915109
12/27/2012,59.29,60.32,57.97,58.69,7327266
12/28/2012,58.29,58.97,57.77,58.51,5101200
12/31/2012,58.34,59.92,58.27,59.69,4959502
01/02/2013,61,61.92,60.6,61.08,6905447
01/03/2013,61.16,61.28,60.49,60.74,5231083
01/04/2013,60.85,61.56,60.52,61.47,4421184
01/07/2013,61.36,61.96,60.45,60.97,5766140
01/08/2013,60.98,61.95,60.06,61.81,8477713
01/09/2013,61.97,62.94,61.95,62.36,5984994
01/10/2013,62.73,62.79,61.73,62.5,5485789
01/11/2013,62.83,63,62.14,62.66,4841273
01/14/2013,61.96,62.95,61.74,62.2,5710107
01/15/2013,61.68,62.4,61.43,61.79,4059909
01/16/2013,61.49,61.6,60.41,61.35,7169768
01/17/2013,61.53,62.95,61.35,62.64,6689245
01/18/2013,62.87,63.28,60.74,62.94,11657531
01/22/2013,62.97,63.39,62.19,62.96,8419900
01/23/2013,62.78,63.4,62.56,63.24,13670694
01/24/2013,63.06,64.43,62.85,63.5,16322294
01/25/2013,63.94,65.26,62.91,63.61,18242131
01/28/2013,61.16,62.51,60.49,61.74,14557565
01/29/2013,61.74,62.31,61.35,62.21,6800229
01/30/2013,62.09,63.02,61.63,61.85,3668615
01/31/2013,61.37,61.82,60.75,60.81,5099858
02/01/2013,61.45,62.14,60.83,61.96,11390684
02/04/2013,61.62,61.86,61.01,61.29,10661306
02/05/2013,61.49,61.93,60.41,61.01,12721025
02/06/2013,60.82,61.24,60.35,60.99,10233966
02/07/2013,61.19,61.3,59.99,60.85,10013170
02/08/2013,60.85,61.42,60.59,61.21,9806573
02/11/2013,61.36,61.6,60.92,61.45,9126728
02/12/2013,61.03,61.03,59.73,60.17,10125524
02/13/2013,60.45,61.63,60.39,61.34,8633769
02/14/2013,61.15,61.45,60.81,61.29,5183019
02/15/2013,61.64,61.77,61.07,61.51,3938754
02/19/2013,61.15,61.41,59.77,59.98,6593443
02/20/2013,59.92,60.01,58.24,58.25,5782655
02/21/2013,57.8,57.86,56.59,57.42,4926456
02/22/2013,57.74,58.63,57.62,58.6,3706439
02/25/2013,58.84,59.25,57.7,57.71,4373782
02/26/2013,57.86,58.93,57.86,58.79,3795073
02/27/2013,58.41,59.98,58.4,59.65,2251644
02/28/2013,59.76,60.18,59.62,59.71,2977874
03/01/2013,59.19,59.98,58.78,59.71,2046043
03/04/2013,59.61,60.08,59.43,60.06,1766264
03/05/2013,60.23,60.66,60.14,60.34,1868447
03/06/2013,60.48,60.64,59.69,59.99,2922056
03/07/2013,60.11,60.22,59.75,60,2038466
03/08/2013,60.33,60.92,60,60.83,2296622
03/11/2013,60.64,61.1,60.64,61,1949612
03/12/2013,60.92,61.69,60.92,61.65,2757446
03/13/2013,61.59,62.74,61.55,62.67,2980853
03/14/2013,62.8,63.44,62.72,62.97,2187561
03/15/2013,62.94,63.56,61.61,62.6,3526810
03/18/2013,61.57,62.83,61.44,62.52,1474688
03/19/2013,62.75,62.76,61.8,62.4,1925834
03/20/2013,62.61,62.96,62.38,62.45,1943270
03/21/2013,61.62,62.03,60.8,60.81,2281023
03/22/2013,60.67,61.23,60.06,60.22,1634996
03/25/2013,60.34,60.44,58.75,59.32,2566895
03/26/2013,59.65,60.19,59.27,59.36,2498120
03/27/2013,58.94,59.22,58.44,59.1,2106332
03/28/2013,59.05,59.39,58.85,59.33,2346521
04/01/2013,59.19,59.56,58.99,59.42,2909146
04/02/2013,59.69,59.79,58.99,59.22,1811672
04/03/2013,59.29,59.37,58.55,58.78,2990459
04/04/2013,58.98,59.74,58.68,59.3,1998207
04/05/2013,58.34,58.79,57.86,58.33,1959569
04/08/2013,58.29,58.49,57.82,58.23,2253096
04/09/2013,58.25,58.88,58.19,58.76,2858993
04/10/2013,59.04,59.74,58.83,59.66,2324164
04/11/2013,59.65,61.18,59.62,60.95,2354847
04/12/2013,60.66,60.87,60.02,60.36,1526511
04/15/2013,59.87,60,58.19,58.24,2782311
04/16/2013,58.78,59.65,58.51,59.61,2923132
04/17/2013,59.08,59.34,58.35,58.65,2450062
04/18/2013,60.08,62.89,60.08,62.27,5298314
04/19/2013,62.3,62.99,61.83,62.68,3966475
04/22/2013,62.72,63.8,62.36,63.59,1897846
04/23/2013,63.76,64.17,63.39,64.11,1737177
04/24/2013,64.22,64.6,63.93,64.22,1931582
04/25/2013,64.66,65.8,64.42,65.07,2061405
04/26/2013,65,65.04,63.89,64.19,1280846
04/29/2013,64.5,65.2,64.17,65.11,1194590
04/30/2013,65.15,65.27,64.5,65.16,1741760
05/01/2013,64.58,65.15,64.27,64.31,2400730
05/02/2013,64.61,65.94,64.36,65.76,1790278
05/03/2013,66.7,67.58,66.44,67.44,2294444
05/06/2013,67.38,67.38,66.68,67.19,1279448
05/07/2013,67.27,67.93,67.22,67.87,1130087
05/08/2013,68.02,69,67.76,68.98,2164967
05/09/2013,68.77,68.98,68.29,68.44,1988648
05/10/2013,68.39,68.75,68.08,68.51,1208493
05/13/2013,68.32,68.47,67.78,68.13,853370
05/14/2013,68.25,69.75,68.19,69.73,1381388
05/15/2013,69.4,70.19,69.18,69.56,1815875
05/16/2013,69.4,69.99,69.1,69.13,1110928
05/17/2013,69.68,70.65,69.32,70.63,1279512
05/20/2013,70.42,70.47,69.28,69.84,1422084
05/21/2013,70.05,70.89,69.82,70.68,1294597
05/22/2013,70.65,71.52,69.63,70.06,1358481
05/23/2013,69.12,70.21,68.64,69.76,1245589
05/24/2013,69.21,70,68.63,69.72,1222529
05/28/2013,70.7,70.92,69.4,69.95,1274738
05/29/2013,69.46,70.22,69.18,69.87,806273
05/30/2013,69.99,70.09,69.24,69.52,842839
05/31/2013,69.2,69.61,68.31,68.31,1149632
06/03/2013,68.69,69.05,67.68,68.99,1449803
06/04/2013,68.87,69.46,67.97,68.27,1188696
06/05/2013,68.06,68.23,66.67,66.7,1256967
06/06/2013,66.32,67.4,66.27,67.26,980344
06/07/2013,68.07,69.08,67.82,68.88,1529324
06/10/2013,69.36,69.36,68.08,68.6,637110
06/11/2013,67.5,68.4,67.15,67.51,984844
06/12/2013,68.19,68.34,67,67.12,918892
06/13/2013,66.91,69.32,66.91,69.04,1784408
06/14/2013,68.64,69.24,68.08,68.41,1021727
06/17/2013,68.92,69.79,68.64,69.44,1242212
06/18/2013,69.39,69.7,68.97,69.6,1135961
06/19/2013,69.51,69.91,68.52,68.55,1111625
06/20/2013,67.7,67.93,66.53,66.78,2357942
06/21/2013,67.55,67.61,65.65,66.24,2321909
06/24/2013,66.18,66.2,64.57,65.22,1718530
06/25/2013,66.34,66.81,65.27,65.74,1436859
06/26/2013,66.12,66.68,65.32,66.26,1696964
06/27/2013,66.74,66.93,65.96,66.27,1723396
06/28/2013,65.78,65.92,64.92,65.04,4268415
07/01/2013,65.39,66.78,65.17,66,1503056
07/02/2013,65.74,66.62,65.7,66.3,1535748
07/03/2013,65.43,66.67,64.29,66.53,773799
07/05/2013,66.95,67.9,66.95,67.76,1442667
07/08/2013,68.17,68.32,67.28,68.12,1298422
07/09/2013,68.71,69.72,68.05,69.58,1855230
07/10/2013,69.63,69.81,69.08,69.4,1284169
07/11/2013,70.76,70.93,69.87,70.28,1970653
07/12/2013,70.22,70.32,69.45,70.14,1692926
07/15/2013,70.25,70.28,69.68,69.8,917702
07/16/2013,69.83,69.85,68.54,68.84,1277559
07/17/2013,69.21,69.78,69.09,69.69,1450237
07/18/2013,69.72,71.8,69.45,71.13,3057596
07/19/2013,71.18,71.57,70.71,70.83,1957252
07/22/2013,70.71,71.65,70.66,71.01,2214217
07/23/2013,71.49,71.74,70.68,70.77,1469706
07/24/2013,70.95,71.09,69.45,69.84,1905735
07/25/2013,69.85,70.61,69.79,70.56,1261571
07/26/2013,70.17,70.48,69.54,69.87,1152295
07/29/2013,70.36,71.81,70,71.68,1719388
07/30/2013,71.63,71.88,71.15,71.62,1448664
07/31/2013,71.81,72.15,71.15,71.36,1402436
08/01/2013,69.48,73.66,69.48,72.36,1070693
08/02/2013,72.25,72.72,71.35,72.2,1114674
08/05/2013,71.87,72.28,71.45,71.96,1412837
08/06/2013,71.85,71.88,70.94,71.77,1361130
08/07/2013,71.57,72.01,71.19,71.65,1172250
08/08/2013,72.32,72.63,71.59,72.23,1713155
08/09/2013,72.08,72.64,71.78,72.16,915766
08/12/2013,71.87,72.27,71.54,72.03,1677691
08/13/2013,72.01,72.89,71.6,72.65,1476809
08/14/2013,72.74,72.95,72.29,72.46,1464864
08/15/2013,71.86,71.86,70.65,70.84,1295265
08/16/2013,70.55,71.14,70.33,70.79,1515016
08/19/2013,70.59,71.12,69.86,70,1169073
08/20/2013,70.06,71.44,69.99,70.95,1721951
08/21/2013,70.89,71.67,70.43,71.05,898243
08/22/2013,71.16,71.63,70.46,71.45,708841
08/23/2013,71.62,72.5,70.83,72.42,1568150
08/26/2013,72.6,72.69,71.31,71.53,957870
08/27/2013,70.65,70.97,70.08,70.41,1196334
08/28/2013,70.05,70.39,69.45,69.54,1796609
08/29/2013,69.32,70.19,69.31,69.72,1554632
08/30/2013,69.87,70.19,69.5,69.69,821537
09/03/2013,70.77,71.38,69.84,70.17,1098762
09/04/2013,70.03,71.16,69.79,70.95,1224206
09/05/2013,70.9,72.02,70.68,71.67,708157
09/06/2013,71.86,71.94,70.34,71.13,1405764
09/09/2013,71.21,72.29,71.21,72.15,909502
09/10/2013,72.7,73.07,72.43,73.07,1276383
09/11/2013,73.02,73.52,72.82,73.39,900463
09/12/2013,73.29,73.88,72.45,72.69,984792
09/13/2013,72.9,73.19,72.39,72.52,1017633
09/16/2013,73.74,74.05,73.36,73.73,956843
09/17/2013,73.74,73.89,73.31,73.76,959862
09/18/2013,73.49,74.98,73.03,74.89,1233915
09/19/2013,74.89,75.42,74.63,74.98,1020970
09/20/2013,74.98,76.87,74.17,74.26,1528909
09/23/2013,74.17,74.17,72.9,72.94,2092894
09/24/2013,73.06,73.73,72.85,72.98,1730159
09/25/2013,73.18,73.8,72.94,73.49,1965697
09/26/2013,73.69,74.52,73.56,74.38,1008947
09/27/2013,73.85,74.23,73.6,73.77,1426116
09/30/2013,73.1,74.6,72.99,74.56,1656480
10/01/2013,74.6,74.9,74.14,74.45,1293462
10/02/2013,73.89,74.38,73.6,74.36,1440956
10/03/2013,74.18,74.47,73.68,74.31,1719425
10/04/2013,74.16,76.33,74.08,76.29,2051513
10/07/2013,75.33,75.97,74.77,74.94,2002832
10/08/2013,74.95,74.99,72.62,72.69,1903721
10/09/2013,72.75,73.3,71.76,72.51,2460653
10/10/2013,73.52,74.07,73.11,73.52,2569064
10/11/2013,73.59,74.45,73.46,74.43,1995307
10/14/2013,73.85,74.32,73.51,74.16,1373067
10/15/2013,74.15,74.38,73.6,73.87,998273
10/16/2013,74.63,74.99,73.9,74.13,2104488
10/17/2013,75.77,78,74.65,77.88,3382482
10/18/2013,78.27,78.82,77.47,78.48,2980793
10/21/2013,77.91,79.01,77.87,78.81,1878994
10/22/2013,79.39,80.67,78.79,80.39,1959578
10/23/2013,80.47,80.54,79.59,79.64,1589718
10/24/2013,79.79,80.17,79.43,80.1,802135
10/25/2013,80.1,81.22,79.94,81.19,1237003
10/28/2013,81.21,81.27,80.49,80.75,1088882
10/29/2013,80.88,82.88,80.88,82.81,1764107
10/30/2013,83.15,83.59,79.96,81.05,2645163
10/31/2013,81.12,82.38,81.04,81.52,1969563
11/01/2013,81.59,81.86,81.11,81.57,1629750
11/04/2013,81.91,81.95,81.09,81.9,1193515
11/05/2013,81.66,82.34,81.06,81.82,1150650
11/06/2013,81.66,82.78,81.66,81.87,1881787
11/07/2013,82.09,82.55,80.32,80.4,1945676
11/08/2013,80.61,81.41,80.34,81.28,2433393
11/11/2013,81.39,82.02,81.32,81.58,1609862
11/12/2013,81.59,81.95,81.23,81.74,1309248
11/13/2013,81.37,82.81,81.32,82.66,2178102
11/14/2013,82.97,83.13,82.28,83.11,1146192
11/15/2013,83.47,83.7,82.7,82.79,1505384
11/18/2013,82.84,83.09,82.46,82.69,1012738
11/19/2013,82.51,83.08,82.43,82.75,641043
11/20/2013,82.7,82.72,81.42,81.62,1474142
11/21/2013,82.1,82.37,81.71,82.08,1192901
11/22/2013,82.22,82.51,81.76,82.28,1354912
11/25/2013,82.32,83.09,82.32,82.5,1032734
11/26/2013,82.49,83.3,82.3,82.92,969164
11/27/2013,82.94,83.1,82.43,82.64,839086
11/29/2013,82.85,83.11,82.29,82.43,427751
12/02/2013,82.56,83.09,82.11,82.23,1046799
12/03/2013,81.65,82.06,80.76,81.36,1379769
12/04/2013,81.38,82.67,81.38,81.94,1824751
12/05/2013,81.51,82.09,80.99,81.43,1185252
12/06/2013,82.85,84.18,81.94,84.09,2073984
12/09/2013,84.28,84.64,83.31,83.62,1255039
12/10/2013,83.62,84.2,83.26,83.9,1032207
12/11/2013,83.79,83.85,81.28,81.67,1929552
12/12/2013,81.61,82.67,81.53,82.37,1560620
12/13/2013,82.37,82.92,81.64,81.92,1168966
12/16/2013,81.92,82.54,81.28,81.68,1703650
12/17/2013,82.05,82.4,81.47,82.23,1354338
12/18/2013,82.3,83.13,81.02,82.94,1659812
12/19/2013,82.79,83.22,82.56,82.99,1256376
12/20/2013,82.86,83.9,82.75,83.6,4620172
12/23/2013,83.93,83.94,82.89,83.11,1283473
12/24/2013,83.13,84.02,83.13,84.01,331691
12/26/2013,84.12,84.36,83.86,84.22,553998
12/27/2013,84.46,84.46,83.86,84.11,726411
12/30/2013,84.12,84.57,83.79,84.42,816955
12/31/2013,84.54,85.12,84.31,84.94,970614
01/02/2014,84.87,85.22,84.43,84.63,1198621
01/03/2014,84.82,85.14,84.59,84.84,717288
01/06/2014,84.93,85.09,83.72,83.98,1334360
01/07/2014,84.02,84.71,83.31,84.33,2181743
01/08/2014,84.44,85.18,83.93,84.86,1844978
01/09/2014,84.96,85.64,84.76,85.15,2273693
01/10/2014,85.35,85.78,84.93,85.36,2024700
01/13/2014,85.06,85.7,83.83,84.08,2351181
01/14/2014,84.45,85.54,84,85.49,1841820
01/15/2014,85.66,85.79,85.28,85.41,2024670
01/16/2014,81.76,85.04,81.76,84.05,3334702
01/17/2014,84.42,86.09,84.42,84.91,3450031
01/21/2014,85.24,85.78,84.69,85.07,2322112
01/22/2014,85.16,85.4,83.56,83.82,2662142
01/23/2014,83.62,84.21,83.2,83.73,2349642
01/24/2014,82.96,83.17,81.33,81.34,2372469
01/27/2014,81.51,82.62,80.81,82.02,2650690
01/28/2014,82.1,82.7,81.38,81.69,1831810
01/29/2014,81.53,82.79,81.36,82.05,1429163
01/30/2014,82.27,83.14,81.9,82.72,1035035
01/31/2014,81.81,82.63,81.25,81.64,2633862
02/03/2014,81.74,82.1,79.12,79.21,2311788
02/04/2014,79.6,80.36,79.18,79.39,1750800
02/05/2014,78.77,79.55,77.85,79.35,2088222
02/06/2014,79.46,80.3,79.19,80.12,1546807
02/07/2014,80.88,81.76,80.84,81.75,1540766
02/10/2014,81.57,82.81,81.39,82.34,1903125
02/11/2014,82.59,83.58,82.18,82.91,1883804
02/12/2014,83.31,83.78,82.96,83.19,1280812
02/13/2014,82.85,84.12,82.48,83.84,1265540
02/14/2014,83.85,84.86,83.8,84.59,1315791
02/18/2014,84.4,84.42,83.4,83.56,2604960
02/19/2014,83.42,84.8,83.39,84.04,1574883
02/20/2014,82.9,84.87,82.9,84.8,1597063
02/21/2014,84.82,85.73,84.79,85.31,2266584
02/24/2014,85.14,85.82,84.7,84.71,1543953
02/25/2014,84.61,86.27,84.61,85.72,1568051
02/26/2014,85.55,87.22,85.48,86.8,1578292
02/27/2014,86.63,87.47,85.91,87.04,1486729
02/28/2014,87.19,89.03,87.06,88.9,2822893
03/03/2014,86.82,89.12,86.82,88.56,1513582
03/04/2014,89.75,90.05,89.27,89.93,1242734
03/05/2014,89.86,90.3,89.47,89.65,1062610
03/06/2014,89.76,90.44,89.61,89.93,873119
03/07/2014,90.02,90.42,89.52,89.9,1439431
03/10/2014,89.56,90.24,89.25,90.01,878827
03/11/2014,90.31,90.31,88.72,88.87,1634559
03/12/2014,88.61,88.98,88.16,88.62,1534175
03/13/2014,89.07,89.32,87.4,87.6,882332
03/14/2014,87.43,88.12,87.28,87.46,1077103
03/17/2014,87.7,88.6,87.5,88.03,1610551
03/18/2014,88.28,89.33,88.26,88.94,1045761
03/19/2014,89.37,89.51,87.37,87.71,1341742
03/20/2014,87.38,88.12,87.17,87.49,1751921
03/21/2014,88.28,89.03,87.41,87.65,2874283
03/24/2014,88.11,88.25,86.38,86.8,846118
03/25/2014,87.23,87.66,86.45,86.68,1465692
03/26/2014,86.9,87.17,85.56,85.57,1363823
03/27/2014,85.56,85.8,84.49,85.16,1057158
03/28/2014,85.38,86.14,85.11,85.73,932369
03/31/2014,86.59,87.61,86.27,86.95,1511478
04/01/2014,87.65,88.39,86.89,88.32,974848
04/02/2014,88.14,88.96,87.82,88.61,1342945
04/03/2014,88.63,89.89,88.14,88.67,1029184
04/04/2014,90.08,90.58,88.39,88.87,2625362
04/07/2014,88.64,88.85,86.4,86.76,2135073
04/08/2014,86.66,87.23,85.51,86.5,1649357
04/09/2014,86.58,88.05,86.14,87.92,1292617
04/10/2014,88.06,88.15,85.32,85.37,1669090
04/11/2014,85.1,85.72,84.31,84.41,1215317
04/14/2014,84.99,85.24,84.09,84.73,1171287
04/15/2014,84.76,84.99,83.21,84.72,1676788
04/16/2014,85.37,86.24,84.69,86.09,1849335
04/17/2014,89.86,89.86,88.28,89.63,3592742
04/21/2014,89.01,89.6,88.24,88.31,2432605
04/22/2014,88.46,88.96,88.19,88.2,1707685
04/23/2014,88.36,89.02,88.03,88.19,1221559
04/24/2014,88.35,88.49,87.29,87.37,1239013
04/25/2014,87.11,87.3,86.16,86.71,1277619
04/28/2014,87.06,87.42,85.4,86.05,1412551
04/29/2014,86.43,86.92,85.9,86.72,897178
04/30/2014,86.4,87.17,86.39,87,957045
05/01/2014,86.79,87.26,86.38,86.55,658633
05/02/2014,86.45,87.87,86.35,87.69,1359245
05/05/2014,87.55,88.16,86.98,88.02,785407
05/06/2014,87.5,88.29,86.72,87.85,1113809
05/07/2014,88.21,89.37,87.62,89.29,1415636
05/08/2014,89.09,89.66,87.9,88.47,1033021
05/09/2014,88.48,88.74,87.83,88.64,861365
05/12/2014,89.19,90.01,88.69,89.88,569775
05/13/2014,89.85,89.94,89.07,89.15,869418
05/14/2014,89.08,89.45,88.51,88.62,697329
05/15/2014,88.5,88.57,87.01,87.75,797938
05/16/2014,87.84,88.18,86.99,88.06,1438626
05/19/2014,88.33,89.48,88.07,88.38,798893
05/20/2014,88.49,88.92,88.15,88.22,1392809
05/21/2014,88.37,89.22,88.24,88.92,1108179
05/22/2014,88.82,89.28,88.5,88.53,585798
05/23/2014,88.49,89.73,88.49,89.64,537192
05/27/2014,89.94,90.04,89.19,89.32,1306247
05/28/2014,89.49,90.58,89.24,90.28,1318804
05/29/2014,90.36,90.62,89.27,90.62,952122
05/30/2014,90.59,91.47,90.23,90.9,946472
06/02/2014,90.98,91.54,90.6,91.22,539553
06/03/2014,90.8,91.2,90.59,90.94,772220
06/04/2014,90.9,92.31,90.2,91.91,1504672
06/05/2014,91.78,91.88,90.66,91.59,911105
06/06/2014,92.08,92.78,91.98,92.39,806267
06/09/2014,92.26,92.72,92.13,92.48,725290
06/10/2014,92.15,92.82,91.64,92.78,771093
06/11/2014,92.2,92.84,92.1,92.71,706769
06/12/2014,92.59,92.74,91.68,91.77,1182647
06/13/2014,91.89,92.31,91.62,92.08,453064
06/16/2014,91.86,92.08,90.98,91.53,773200
06/17/2014,91.3,92.03,91.09,91.3,591352
06/18/2014,91.18,91.97,90.74,91.8,1036856
06/19/2014,91.71,91.99,91.51,91.6,768442
06/20/2014,91.89,92.63,91.65,92.23,1451608
06/23/2014,92.37,92.45,91.84,92.14,490287
06/24/2014,91.79,92.64,91.3,91.52,965793
06/25/2014,91.71,92.81,91.71,92.18,1117438
06/26/2014,92.3,92.32,91.03,91.33,832923
06/27/2014,90.89,92.06,90.89,91.98,1122158
06/30/2014,95.55,96.03,94.05,94.73,2809358
07/01/2014,94.78,95.12,94.15,94.16,1225550
07/02/2014,94.03,94.44,93.75,93.91,804471
07/03/2014,94.09,94.84,93.95,94.65,512341
07/07/2014,94.23,94.25,93.46,93.94,1146929
07/08/2014,93.73,94.16,93.18,93.24,839779
07/09/2014,93.68,93.82,93.04,93.69,735953
07/10/2014,92.72,93.69,92.42,93.5,1108151
07/11/2014,93.34,93.86,92.78,93.79,606142
07/14/2014,94,94.2,93.73,93.78,559871
07/15/2014,94.1,94.45,92.59,92.67,1380169
07/16/2014,93.21,93.41,92.4,92.7,1869807
07/17/2014,92.43,94.56,92.43,93.68,1747900
07/18/2014,93.86,94.9,93.76,94.47,1321386
07/21/2014,94.04,94.59,93.87,94.12,1232010
07/22/2014,94.35,95.17,94.2,94.73,1072971
07/23/2014,94.75,95.42,94.55,94.82,1425913
07/24/2014,94.68,95.27,94.41,94.69,820089
07/25/2014,94.68,94.9,94.01,94.17,569615
07/28/2014,94.35,94.51,93.57,94.09,802326
07/29/2014,94,94.03,92.38,92.42,1170265
07/30/2014,92.53,93.17,91.79,92.16,1175099
07/31/2014,91.89,91.89,89.42,89.43,1430565
08/01/2014,88.81,89.83,88.59,89.45,1269421
08/04/2014,89.32,90.61,89.32,90.44,886836
08/05/2014,89.84,90.48,89.12,89.34,942984
08/06/2014,89.22,90.08,89.1,89.65,1092483
08/07/2014,90.31,90.47,89.12,89.26,927734
08/08/2014,89.47,90.64,89.12,90.55,673009
08/11/2014,90.77,90.97,90.09,90.1,633121
08/12/2014,90.18,90.47,89.78,90.27,449170
08/13/2014,90.8,91.43,90.11,91.37,704979
08/14/2014,91.17,91.42,90.89,91.18,807828
08/15/2014,91.4,92.18,90.87,91.49,772688
08/18/2014,91.51,92.25,91.48,92.2,829923
08/19/2014,92.33,92.87,92.2,92.56,704915
08/20/2014,92.28,92.62,91.92,92.32,855958
08/21/2014,92.6,93.19,92.32,92.78,828885
08/22/2014,92.78,92.94,92.48,92.54,540698
08/25/2014,92.78,93.35,92.7,93.32,794130
08/26/2014,93.57,93.57,92.98,93.4,757538
08/27/2014,93.24,93.48,92.54,92.84,723635
08/28/2014,92.59,93.24,92.45,92.94,618669
08/29/2014,93.16,93.28,92.83,93.11,647974
09/02/2014,93.36,93.43,92.54,92.81,697279
09/03/2014,93.06,93.24,91.97,92.09,997978
09/04/2014,92.21,92.74,91.93,92.11,664434
09/05/2014,92.17,92.29,91.81,92.24,887975
09/08/2014,92.15,92.9,91.93,92.21,509954
09/09/2014,92.34,92.41,90.97,91.13,621661
09/10/2014,91.01,91.67,90.53,91.62,629556
09/11/2014,90.92,91.44,90.68,91.1,747103
09/12/2014,91.07,91.28,90,90.33,792168
09/15/2014,90.37,90.65,89.79,90.34,850704
09/16/2014,90.19,91.32,89.81,90.7,1405738
09/17/2014,91.13,91.78,90.85,91.26,1161486
09/18/2014,91.47,92.3,91.33,91.91,892098
09/19/2014,92.26,92.81,91.73,91.77,1294318
09/22/2014,91.81,92.04,90.26,90.32,1163428
09/23/2014,90.13,90.44,89.61,89.71,1157881
09/24/2014,89.88,90.85,89.79,90.72,986846
09/25/2014,90.2,90.3,89.3,89.3,701462
09/26/2014,89.17,89.88,89.12,89.75,633128
09/29/2014,89.24,90.42,88.99,90.25,912683
09/30/2014,90.06,90.19,88.84,89,1374504
10/01/2014,88.89,88.89,85.8,86.48,2807728
10/02/2014,86.34,86.81,84.99,86.47,1536398
10/03/2014,86.87,87.6,86.51,86.79,1344980
10/06/2014,87.55,87.55,86.2,86.51,744620
10/07/2014,86.13,86.13,84.29,84.32,2170075
10/08/2014,84.34,85.84,83.72,85.7,2683414
10/09/2014,85.94,86.07,83.96,84.17,1962356
10/10/2014,84.04,84.78,82.99,83.07,1854594
10/13/2014,82.91,83.23,79.7,79.89,2306091
10/14/2014,80.12,81.41,79.35,80.36,2208020
10/15/2014,79.33,81.94,78.26,81.69,3090832
10/16/2014,78.67,83.01,77.61,82.24,3837602
10/17/2014,83.52,85.21,83.08,84.65,3161298
10/20/2014,84.94,86.52,84.49,86.48,2222951
10/21/2014,86.83,88.79,86.83,88.68,2142098
10/22/2014,89.23,89.79,87.44,87.63,2617817
10/23/2014,88.65,88.92,87.81,88.13,1382361
10/24/2014,88.15,88.71,87.13,88.58,1380017
10/27/2014,87.38,87.69,86.49,87.16,1820448
10/28/2014,88.11,89.05,87.74,88.37,2076673
10/29/2014,88.22,88.41,86.3,86.83,2374260
10/30/2014,86.75,87.51,86.49,87.18,1051950
10/31/2014,88.12,92.51,87.55,92.14,5071503
11/03/2014,92.3,92.63,90.42,90.63,2154900
11/04/2014,90.59,90.83,89.24,89.78,1521853
11/05/2014,90.26,92.94,90.26,92.82,2663551
11/06/2014,93.04,93.61,92.2,93.51,1779673
11/07/2014,92.16,94.17,92.16,93.88,1505720
11/10/2014,93.75,94.1,93.19,93.56,1055419
11/11/2014,93.61,93.95,92.91,93.15,1225335
11/12/2014,93.15,93.31,92.2,92.52,1899712
11/13/2014,92.69,93.94,92.13,93.11,1820730
11/14/2014,93.09,93.65,92.34,92.55,1447872
11/17/2014,92.58,93.66,92.32,93.17,924968
11/18/2014,93.02,94.74,92.74,94.7,1654054
11/19/2014,94.71,95.8,94.41,95.65,2505578
11/20/2014,95.23,96.61,95.13,96.58,1223320
11/21/2014,97.59,98.82,96.99,97.73,2446093
11/24/2014,97.85,98.28,97.33,97.92,2307177
11/25/2014,97.66,98.68,97.66,97.77,1169018
11/26/2014,97.64,98.54,97.37,98.47,772167
11/28/2014,99.07,99.64,98.25,99.35,1077828
12/01/2014,98.69,100.2,98.39,99.81,2936178
12/02/2014,100.39,100.86,98.91,99.45,1636599
12/03/2014,99.66,101.49,99.45,101.33,1400960
12/04/2014,101.26,102.19,100.96,101.53,1880849
12/05/2014,101.62,102.32,100.96,101.14,1419823
12/08/2014,100.94,101.64,100.6,101.13,1589923
12/09/2014,100.3,102.47,100.3,102.39,1512011
12/10/2014,102.39,102.39,100.06,100.25,1251446
12/11/2014,100.24,101.8,100.06,101.05,1333620
12/12/2014,100.59,100.94,99.74,99.81,2586946
12/15/2014,100.31,100.97,98.13,98.98,2276217
12/16/2014,98.16,100.45,98.05,98.35,1704458
12/17/2014,98.53,101.23,98.34,100.88,1809100
12/18/2014,101.86,103.07,101.17,103.03,1279950
12/19/2014,103.51,104.2,103.03,103.44,1854314
12/22/2014,103.77,104.4,103.17,104.23,1522113
12/23/2014,104.47,105.36,104.38,104.89,943775
12/24/2014,105.07,105.22,104.56,104.88,514413
12/26/2014,105.01,105.65,104.65,105.1,495815
12/29/2014,104.8,105.82,104.66,105.51,749506
12/30/2014,105.08,105.57,104.9,105.14,728424
12/31/2014,105.41,106.05,104.85,104.9,1139959
01/02/2015,104.91,105.45,103.29,104.09,708518
01/05/2015,103.05,103.36,101.02,101.43,1823495
01/06/2015,101.98,102.25,99.76,101.15,1501460
01/07/2015,101.2,101.98,100.48,101.65,2292229
01/08/2015,102.68,104.7,102.08,104.29,1909109
01/09/2015,104.49,104.73,102.46,103.06,1435297
01/12/2015,103.02,103.5,102.04,102.72,1231349
01/13/2015,103.21,104.49,101.87,103.03,1403716
01/14/2015,101.81,103.04,100.99,102.94,2344125
01/15/2015,103.98,106.19,102.01,102.65,2947994
01/16/2015,102.6,104.79,102.14,104.56,1706306
01/20/2015,104.88,105.29,102.64,103.55,1860599
01/21/2015,103.24,104.21,102.66,103.52,1318954
01/22/2015,103.8,105.27,102.71,105.04,1057615
01/23/2015,104.84,104.84,103.37,103.4,843963
01/26/2015,103.07,103.54,102.21,103.38,919151
01/27/2015,102.57,103.49,101.78,102.58,1144547
01/28/2015,102.63,103.34,100.41,100.65,1280263
01/29/2015,100.75,102.6,99.99,102.39,1416174
01/30/2015,101.09,102.6,101.09,101.27,2505933
02/02/2015,100.41,101.77,99.79,101.55,1458122
02/03/2015,102.76,103.36,101.59,102.91,1206771
02/04/2015,102.84,103.9,102.12,103.2,993766
02/05/2015,103.91,104.94,103.4,104.53,1288634
02/06/2015,104.47,105.29,103.98,104.76,1046895
02/09/2015,104.55,104.77,102.65,102.93,1661094
02/10/2015,104.01,104.13,102.52,103.54,890804
02/11/2015,103.44,104.02,102.98,103.55,675553
02/12/2015,104.5,106.01,103.98,105.78,1542428
02/13/2015,106.06,107.49,105.79,107.43,1134177
02/17/2015,106.34,107.55,105.98,106.99,1548840
02/18/2015,106.64,107.59,106.15,107.53,1049725
02/19/2015,106.72,107.93,106.51,107.2,843094
02/20/2015,106.79,107.96,105.64,107.74,1215321
02/23/2015,107.05,107.91,106.87,107.64,1237206
02/24/2015,107.8,107.96,107.19,107.77,827969
02/25/2015,107.41,108.05,107.03,107.25,960332
02/26/2015,107.07,107.78,106.8,107.37,853006
02/27/2015,107.35,107.85,106.55,107.15,1269735
03/02/2015,107.82,108.21,107.21,108.17,1235127
03/03/2015,107.82,107.86,106.42,106.77,1065542
03/04/2015,106.1,108.28,105.69,107.13,1539356
03/05/2015,107.34,107.54,106.56,107.19,852185
03/06/2015,106.22,106.85,105.43,105.59,952221
03/09/2015,105.79,106.37,105.37,105.73,1318722
03/10/2015,104.65,104.74,103.61,103.66,1495100
03/11/2015,103.69,103.84,102.41,102.49,1460218
03/12/2015,102.58,104.6,102.46,104.52,862299
03/13/2015,104.09,104.45,103.01,103.73,1039954
03/16/2015,104.11,104.8,103.78,104.69,986114
03/17/2015,103.99,104.47,102.92,103.43,1017180
03/18/2015,102.82,105.66,101.5,104.52,2013037
03/19/2015,103.85,104.21,102.79,102.95,887060
03/20/2015,103.47,104.8,102.76,104.24,1433759
03/23/2015,104.1,104.6,103.05,103.06,1136760
03/24/2015,103.04,103.71,102.63,102.65,1038015
03/25/2015,102.77,103.33,101.17,101.25,1163925
03/26/2015,100.4,101.27,100.15,100.75,958511
03/27/2015,101.05,101.95,100.55,101.47,1071825
03/30/2015,102.09,102.88,101.56,102.17,1116357
03/31/2015,101.46,103.04,101.11,102.65,1631149
04/01/2015,102.57,102.84,101.2,102.16,1442037
04/02/2015,101.69,102.53,101.46,101.74,1275370
04/06/2015,101.34,102.39,101.04,102.08,947372
04/07/2015,101.97,103.01,101.68,102.36,994191
04/08/2015,102.1,103.16,102.1,102.93,1481356
04/09/2015,103.03,104.01,102.59,103.89,1020962
04/10/2015,104.23,104.64,103.33,104.45,1254754
04/13/2015,104.39,105.02,103.96,104.44,1114224
04/14/2015,104.41,104.55,103.28,103.77,1171691
04/15/2015,104.11,104.27,103.1,103.44,1711142
04/16/2015,106.06,106.1,103.12,103.21,2343155
04/17/2015,102.47,103.78,102.11,103.16,2064720
04/20/2015,103.79,104.2,102.62,103.65,1799835
04/21/2015,103.87,103.9,102.67,103.35,1032071
04/22/2015,103.39,103.95,102.63,103.04,722550
04/23/2015,102.9,103.25,102.57,102.81,718989
04/24/2015,102.8,103.23,101.27,101.63,1557897
04/27/2015,101.71,101.93,100.3,100.51,1959217
04/28/2015,100.37,100.74,99.49,100.46,1785363
04/29/2015,99.99,101.19,99.73,101.09,1506758
04/30/2015,100.35,101.57,100.14,100.84,2051213
05/01/2015,100.92,102.32,100.66,102.16,1360298
05/04/2015,102.35,102.86,102.21,102.43,924249
05/05/2015,103.09,103.31,100.77,100.86,1209668
05/06/2015,101.34,101.4,100.43,101.08,1214145
05/07/2015,101.14,103.09,100.77,102.7,1974327
05/08/2015,104.01,105.26,103.56,104.58,1399371
05/11/2015,104.35,105.1,103.75,103.81,1532963
05/12/2015,103.43,103.8,102.47,102.51,1090448
05/13/2015,102.52,103.1,101.6,102.93,1380403
05/14/2015,103.76,104.57,103.2,104.41,1427374
05/15/2015,104.42,105.83,104.04,105.82,1120535
05/18/2015,105.8,105.8,104.79,105.45,1682492
05/19/2015,105.42,105.89,104.74,105.04,1370757
05/20/2015,105.02,105.38,104.21,104.54,1160503
05/21/2015,104.26,105.13,104.22,104.69,573415
05/22/2015,104.4,105.17,104.4,104.67,643292
05/26/2015,104.3,104.65,103.08,103.52,1333166
05/27/2015,103.89,104.86,103.75,104.64,805821
05/28/2015,104.24,105.08,103.81,104.96,1063546
05/29/2015,104.69,105.17,104.13,104.52,1037545
06/01/2015,104.19,105.14,103.78,104.61,734618
06/02/2015,104.41,104.98,103.66,104.24,657685
06/03/2015,104.72,105.07,104.12,105,998096
06/04/2015,104.53,105.14,104.22,104.49,1204888
06/05/2015,104.07,104.64,103.41,104.36,910994
06/08/2015,104.3,104.37,103.75,104.13,971208
06/09/2015,104.33,105.15,103.93,104.68,925635
06/10/2015,105.22,106.39,105.03,105.89,1837676
06/11/2015,106.31,107.28,105.46,106.86,1714651
06/12/2015,106.69,106.82,106.02,106.52,1043611
06/15/2015,105.61,106.06,104.98,105.43,917482
06/16/2015,105.22,106.11,105.02,105.93,1245005
06/17/2015,106.18,106.69,105.15,106.51,2544596
06/18/2015,106.96,107.98,106.66,107.56,1618383
06/19/2015,106.99,107.78,106.68,107.12,2234353
06/22/2015,107.76,108.35,107.54,107.94,821055
06/23/2015,108.2,108.39,107.54,108.04,1143787
06/24/2015,108.02,108.21,107.67,107.76,1942404
06/25/2015,107.85,108.27,107.49,107.55,1183513
06/26/2015,107.89,107.97,107.4,107.79,669268
06/29/2015,106.98,107.13,104.91,104.98,895105
06/30/2015,105.65,105.94,104.47,104.75,1028250
07/01/2015,105.74,106.45,105.24,106.41,1134057
07/02/2015,106.99,107.14,105.24,105.81,880049
07/06/2015,104.85,105.92,104.3,105.1,1337824
07/07/2015,105.32,105.32,103.52,105.06,1436698
07/08/2015,104.03,104.56,103.22,103.34,1373441
07/09/2015,104.71,104.89,102.86,102.88,1602769
07/10/2015,104.22,105.05,103.69,104.95,1202440
07/13/2015,106.11,106.49,105.9,106.39,1456074
07/14/2015,106.39,107.66,106.36,107.43,1066156
07/15/2015,107.14,107.75,106.66,106.95,1388578
07/16/2015,106.93,108.01,101.86,102.13,5362433
07/17/2015,102.7,103.69,101.97,102.09,3305905
07/20/2015,102.24,102.28,101.02,101.21,1999260
07/21/2015,101.48,101.87,98.5,98.8,3738911
07/22/2015,98.74,99.37,97.98,98.68,2422335
07/23/2015,98.71,98.8,95.98,96.47,2970449
07/24/2015,96.38,96.44,93.32,94.3,3087513
07/27/2015,93.78,94.26,92.79,93.53,2678822
07/28/2015,94.07,97.89,93.73,97.67,3010878
07/29/2015,97.79,99.53,97.57,99.14,2537478
07/30/2015,99.09,99.32,98.24,99.12,1087423
07/31/2015,99.54,99.88,98.79,99.01,1239390
08/03/2015,98,99.28,97.78,98.47,1390209
08/04/2015,98.63,99.05,96.99,97.29,1483152
08/05/2015,98.35,98.71,97.04,97.31,1085842
08/06/2015,97.35,97.63,96.13,96.43,1377059
08/07/2015,96.09,96.35,95.06,95.28,1494692
08/10/2015,95.95,97.69,95.66,97.69,1115721
08/11/2015,96.54,96.59,95.12,95.73,1374327
08/12/2015,94.97,95.49,93.69,95.25,3599235
08/13/2015,95.54,95.66,94.8,94.88,1155167
08/14/2015,94.97,96.03,94.74,95.94,1287519
08/17/2015,95.49,96.3,95.16,95.51,1475684
08/18/2015,95.68,96.87,95.63,95.78,2403915
08/19/2015,95.1,95.38,93.6,93.94,2099833
08/20/2015,93.38,93.83,91.55,91.55,2243642
08/21/2015,90.31,91,88.99,89.1,2365258
08/24/2015,84.33,87.92,83.39,84.58,3388974
08/25/2015,86.93,86.93,83.4,83.46,2730274
08/26/2015,84.93,85.42,83.39,85.3,3921346
08/27/2015,86.75,87.83,85.47,87.21,4535696
08/28/2015,86.92,88.32,86.92,88.04,1534065
08/31/2015,87.56,88.57,86.83,87.33,1582608
09/01/2015,85.47,85.8,83.21,83.73,2260490
09/02/2015,85.1,85.7,83.97,85.7,2431620
09/03/2015,86.19,86.95,85.73,86.1,1310926
09/04/2015,84.92,85.99,84.57,85.5,1965208
09/08/2015,87,88.34,86.61,88.33,1601232
09/09/2015,89.21,89.69,87.94,88.08,2719630
09/10/2015,88.05,89.24,87.57,88.55,1988180
09/11/2015,88.24,88.68,87.44,88.63,1428000
09/14/2015,88.25,88.67,85.9,86.28,2362855
09/15/2015,86.28,87.35,85.83,86.41,2341297
09/16/2015,86.52,87.38,86.43,87.1,1747840
09/17/2015,87.12,88,86.24,86.57,2069943
09/18/2015,85.32,86.13,84.97,85.38,2127703
09/21/2015,85.72,86.44,85.24,85.65,1112895
09/22/2015,84.51,84.82,82.96,83.94,1801110
09/23/2015,84.07,84.46,82.29,82.4,1607213
09/24/2015,81.6,81.97,79.89,80.72,3667673
09/25/2015,81.24,81.76,80.3,80.95,1441847
09/28/2015,80.18,80.48,77.34,77.45,2215288
09/29/2015,77.6,79.1,77.43,78.76,2319731
09/30/2015,79.8,80.84,79.67,80.33,2809416
10/01/2015,75.99,82.63,75.99,82.61,3420869
10/02/2015,81.63,84.96,80.99,84.95,2170947
10/05/2015,85.62,86.91,85.4,86.68,1839440
10/06/2015,86.7,87.23,85.45,85.57,2197913
10/07/2015,85.13,86.45,84.74,86.41,2004220
10/08/2015,86.29,87.96,85.94,87.74,1142178
10/09/2015,87.7,88.39,87.06,87.97,1584143
10/12/2015,88.57,89.53,87.98,89.17,1723257
10/13/2015,88.46,89.85,87.85,89.08,2075160
10/14/2015,88.75,90.01,88.66,89.18,2041100
10/15/2015,89.63,91.06,88.25,90.91,3070809
10/16/2015,91.82,94.62,91.62,92.31,3672777
10/19/2015,91.66,92.81,91.08,92.8,1143531
10/20/2015,92.71,93.83,92.32,92.9,1217863
10/21/2015,93.21,93.33,91.63,92.21,1414221
10/22/2015,93.1,95.3,92.86,94.93,2172329
10/23/2015,95.76,96.1,95.05,95.29,1387937
10/26/2015,95.39,95.74,94.77,95.21,1162154
10/27/2015,94.81,95.47,94.04,94.33,1142920
10/28/2015,94.81,95.62,94.12,95.58,872728
10/29/2015,95.66,95.91,94.91,95.54,989313
10/30/2015,95.83,96.01,95.01,95.55,1372215
11/02/2015,95.5,95.93,94.71,95.3,1334064
11/03/2015,95.34,96.02,94.99,95.47,835842
11/04/2015,95.89,95.96,95.11,95.2,594263
11/05/2015,95.05,95.31,93.87,94.6,756592
11/06/2015,94.24,94.95,93.64,94.69,827764
11/09/2015,94.45,94.5,92.64,93.56,776054
11/10/2015,93.23,93.65,92.3,93.01,1212217
11/11/2015,93.34,93.77,92.74,93.44,931557
11/12/2015,92.51,92.98,91.22,91.25,1741435
11/13/2015,91.35,93.31,90.91,92.74,1766022
11/16/2015,92.79,93.9,92.17,93.73,1579225
11/17/2015,93.7,94.77,93.29,93.49,1167304
11/18/2015,93.62,96.11,93.38,95.81,1984681
11/19/2015,95.84,96.16,94.61,95.05,1089592
11/20/2015,95.17,96.63,95,96.18,1616201
11/23/2015,96.55,97.5,95.9,96.95,1376592
11/24/2015,96.12,97.51,96.12,97.01,922729
11/25/2015,97.39,98.17,96.9,97.93,1015217
11/27/2015,97.73,98.1,97.05,97.68,456799
11/30/2015,97.8,97.92,96.66,97.25,1354060
12/01/2015,97.83,98.27,97.31,98.15,850850
12/02/2015,97.65,98.15,96.63,96.87,878609
12/03/2015,96.92,97.46,95.56,95.94,954906
12/04/2015,96.1,97.81,95.97,97.37,930638
12/07/2015,96.8,97.34,95.88,96.56,834240
12/08/2015,95.56,96.12,94.4,94.47,1385685
12/09/2015,94.48,95.25,92.5,93.43,1790661
12/10/2015,93.18,93.55,92.42,92.76,1410770
12/11/2015,91.46,91.92,90.49,90.76,1590509
12/14/2015,90.63,91,89.08,89.84,1984937
12/15/2015,90.78,91.42,90.55,90.61,1059885
12/16/2015,91.2,92.26,90.61,92.16,1384893
12/17/2015,92.44,92.56,90.27,90.3,1443409
12/18/2015,90.11,90.3,88.51,88.54,1661154
12/21/2015,89.12,89.54,88.73,89.41,1060510
12/22/2015,90.02,91.18,89.71,90.8,758646
12/23/2015,91.38,92.43,91.25,92.18,704450
12/24/2015,91.9,92.68,91.9,92.29,321351
12/28/2015,92.14,92.26,91.42,91.86,575210
12/29/2015,92.71,92.82,91.91,92.46,579265
12/30/2015,92.26,92.61,91.69,91.72,646779
12/31/2015,91.38,91.95,90.84,90.87,781369
01/04/2016,89.44,90.11,88.33,90.09,1445425
01/05/2016,90.69,91.33,89.62,90.4,1268933
01/06/2016,88.68,89.38,88.21,88.76,1706797
01/07/2016,87.42,89.32,87.06,87.6,2452478
01/08/2016,87.98,88.86,86.59,86.88,1864575
01/11/2016,87.21,88.02,86.19,86.87,2049827
01/12/2016,87.66,87.87,86.24,87.44,1175573
01/13/2016,88.26,88.5,85.53,85.56,1993025
01/14/2016,85.78,86.55,84.23,86.06,2165111
01/15/2016,84.27,84.92,83.07,84.5,1770619
01/19/2016,85.33,85.75,82.67,84.19,3219663
01/20/2016,83.17,87.07,82.78,86,4785901
01/21/2016,85.52,87.05,83.32,84.5,4073512
01/22/2016,85.32,87.18,84.9,85.65,1646028
01/25/2016,85.34,85.81,83.61,83.8,1286684
01/26/2016,84.12,85.78,83.78,85.14,1054289
01/27/2016,84.99,86.66,84.51,85.33,1719856
01/28/2016,85.78,86.47,84.58,84.67,2186701
01/29/2016,85.26,87.48,84.85,87.43,2196574
02/01/2016,86.17,88.18,85.75,87.89,1350937
02/02/2016,87.33,87.33,85.2,85.54,1204791
02/03/2016,86.7,87.49,84.48,87.46,1636349
02/04/2016,87.66,88.57,86.99,87.99,1237919
02/05/2016,87.64,88.12,85.25,85.4,1320739
02/08/2016,84.79,84.85,81.71,82.45,1766035
