10/18/2010,14.715,14.715,14.696,14.696,42800
10/19/2010,14.513,14.526,14.513,14.526,8100
10/22/2010,14.683,14.683,14.683,14.683,6200
10/26/2010,14.526,14.526,14.368,14.368,1532700
10/27/2010,14.368,14.526,14.368,14.526,23800
10/28/2010,14.526,14.526,14.526,14.526,87100
10/29/2010,14.715,14.715,14.715,14.715,3200
11/01/2010,14.368,14.526,14.336,14.526,220900
11/04/2010,14.683,14.715,14.368,14.715,5425600
11/05/2010,14.526,14.841,14.526,14.778,633800
11/08/2010,14.841,14.873,14.683,14.683,120800
11/09/2010,14.936,14.936,14.905,14.936,148400
11/10/2010,15.062,15.315,15.062,15.157,281500
11/11/2010,15.189,15.618,15.189,15.435,47976
11/12/2010,15.441,16.37,15.441,15.744,1769370
11/15/2010,15.789,17.083,15.789,16.294,447536
11/16/2010,16.326,16.572,16.326,16.401,193249
11/17/2010,16.452,16.515,16.389,16.389,325904
11/18/2010,16.452,16.61,16.452,16.565,54207
11/19/2010,16.635,17.525,16.635,17.368,2074759
11/22/2010,17.304,17.677,17.033,17.298,528885
11/23/2010,17.21,17.21,16.578,16.629,134560
11/24/2010,16.659,16.85,16.483,16.787,37812
11/26/2010,16.837,17.178,16.837,17.153,6017
11/29/2010,17.115,17.115,16.704,16.736,180407
11/30/2010,16.673,16.704,16.401,16.521,182273
12/01/2010,16.395,17.071,16.395,16.723,619151
12/02/2010,16.761,16.837,16.515,16.61,139629
12/03/2010,16.528,16.736,16.439,16.578,193021
12/06/2010,16.609,17.115,16.546,17.083,485713
12/07/2010,17.38,17.589,17.273,17.525,331713
12/08/2010,17.519,17.57,17.437,17.437,110825
12/09/2010,17.5,17.544,17.368,17.456,74789
12/10/2010,17.431,17.431,17.128,17.323,68706
12/13/2010,17.494,17.494,17.311,17.399,8336
12/14/2010,17.399,17.544,17.399,17.437,218324
12/15/2010,17.431,17.49,17.33,17.33,449802
12/16/2010,17.301,17.301,16.862,17.115,76476
12/17/2010,17.181,17.279,17.09,17.165,562744
12/20/2010,17.273,17.418,17.112,17.115,160878
12/21/2010,17.147,17.222,17.128,17.128,26145
12/22/2010,17.222,17.222,16.875,17.165,47964
12/23/2010,18.359,18.359,16.963,17.045,67582
12/27/2010,17.058,17.083,17.02,17.083,2262
12/28/2010,17.033,17.052,16.932,17.052,13250
12/29/2010,17.064,17.241,16.831,16.925,34288
12/30/2010,16.97,17.083,16.944,16.944,48566
12/31/2010,16.982,17.159,16.922,17.115,77561
01/03/2011,17.241,17.62,17.09,17.304,223686
01/04/2011,17.393,17.393,17.178,17.203,178040
01/05/2011,17.26,17.304,17.147,17.147,62465
01/06/2011,17.184,17.279,17.121,17.203,159334
01/07/2011,17.159,17.197,17.09,17.096,8759
01/10/2011,17.159,17.159,17.045,17.071,84734
01/11/2011,17.077,17.109,16.989,17.052,72098
01/12/2011,17.134,17.134,16.717,16.862,76702
01/13/2011,16.894,16.913,16.578,16.61,176025
01/14/2011,16.565,17.134,16.42,17.039,359482
01/18/2011,17.083,17.083,16.736,16.989,129101
01/19/2011,17.02,17.02,16.881,16.919,492521
01/20/2011,16.85,16.925,16.774,16.843,182526
01/21/2011,16.869,16.869,16.711,16.862,551583
01/24/2011,16.944,17.102,16.944,17.045,202348
01/25/2011,17.052,17.115,16.925,17.039,109039
01/26/2011,17.052,17.052,16.894,17.039,9578
01/27/2011,17.121,17.393,17.02,17.38,382602
01/28/2011,17.431,17.803,17.349,17.576,337044
01/31/2011,17.683,18.58,17.683,18.189,1165968
02/01/2011,18.113,18.372,18.113,18.315,1308772
02/02/2011,18.283,18.309,17.829,18.233,52093
02/03/2011,18.208,18.447,18.069,18.315,940108
02/04/2011,18.283,18.353,18.088,18.315,603761
02/07/2011,18.264,18.334,17.974,18.277,149238
02/08/2011,18.245,18.315,18.024,18.252,85177
02/09/2011,18.302,18.315,18.056,18.081,19473
02/10/2011,18.17,18.315,18.17,18.271,207313
02/11/2011,18.309,18.315,18.138,18.271,28877
02/14/2011,18.315,18.454,18.29,18.378,52114
02/15/2011,18.315,19.104,18.315,19.016,409749
02/16/2011,18.991,19.805,18.991,19.262,2004492
02/17/2011,19.237,19.269,18.871,19.104,1206339
02/18/2011,19.092,19.521,19.092,19.445,1758384
02/22/2011,19.395,20.06,19.344,19.382,188983
02/23/2011,19.464,19.742,19.407,19.673,1384713
02/24/2011,19.717,20.32,19.565,19.578,1493441
02/25/2011,19.679,20.86,19.509,20.51,1776757
02/28/2011,20.54,20.68,20.15,20.22,397562
03/01/2011,20.34,20.37,19.963,20.25,669610
03/02/2011,20.4,20.44,20.18,20.24,1095077
03/03/2011,20.29,20.53,20.26,20.31,894921
03/04/2011,20.22,20.85,20.22,20.85,430828
03/07/2011,20.9,21.15,20.88,20.98,334187
03/08/2011,20.88,21.25,20.8,21.01,396289
03/09/2011,20.97,21.19,20.79,21.01,562199
03/10/2011,20.95,21.16,20.49,20.52,230381
03/11/2011,20.4,20.71,20.35,20.51,440397
03/14/2011,20.49,20.53,20.37,20.47,277545
03/15/2011,20.18,20.46,19.793,20.22,347477
03/16/2011,20.06,20.42,20.06,20.34,460388
03/17/2011,20.47,20.54,20.22,20.25,741845
03/18/2011,20.34,20.54,20.23,20.41,552275
03/21/2011,20.47,20.62,20.47,20.52,295942
03/22/2011,20.53,20.88,20.53,20.82,579056
03/23/2011,20.9,21.65,20.9,21.26,864808
03/24/2011,21.49,21.49,21.19,21.22,408664
03/25/2011,21.28,21.4,21.16,21.18,324546
03/28/2011,21.3,21.3,21.01,21.08,240281
03/29/2011,21.03,21.03,20.67,20.74,764925
03/30/2011,20.84,20.84,20.44,20.48,477480
03/31/2011,20.7,20.85,17.292,17.803,7393927
04/01/2011,17.898,18.65,17.639,18.182,3009280
04/04/2011,18.29,18.473,18.157,18.252,462067
04/05/2011,18.176,18.283,16.805,17.052,2082204
04/06/2011,17.235,17.532,17.128,17.368,725620
04/07/2011,17.513,17.513,17.178,17.21,400990
04/08/2011,17.254,17.292,17.008,17.153,446788
04/11/2011,17.26,17.557,16.547,16.894,637179
04/12/2011,17.02,17.02,16.262,16.553,1565931
04/13/2011,16.66,17.052,16.344,16.856,541911
04/14/2011,16.976,17.134,16.887,17.134,599047
04/15/2011,17.064,17.304,16.938,17.033,577647
04/18/2011,16.9,17.191,16.824,17.064,311537
04/19/2011,17.008,17.292,16.989,17.083,346944
04/20/2011,17.191,17.424,17.115,17.368,569200
04/21/2011,17.453,17.595,17.332,17.573,208029
04/25/2011,17.437,17.674,17.437,17.557,161679
04/26/2011,17.5,17.696,17.469,17.576,327995
04/27/2011,17.506,17.936,17.481,17.841,232020
04/28/2011,17.797,17.892,17.74,17.772,107421
04/29/2011,17.696,17.797,17.626,17.734,179909
05/02/2011,17.81,18.075,17.753,17.841,371316
05/03/2011,17.885,18.056,17.525,17.626,284118
05/04/2011,17.664,17.702,17.285,17.437,1058415
05/05/2011,17.349,17.456,17.165,17.241,360286
05/06/2011,17.361,17.462,17.21,17.229,182295
05/09/2011,17.248,17.664,17.248,17.664,357750
05/10/2011,17.74,17.968,17.601,17.86,258654
05/11/2011,17.923,17.93,17.557,17.589,337862
05/12/2011,17.506,17.532,17.368,17.418,304643
05/13/2011,17.399,17.405,17.115,17.21,361697
05/16/2011,17.052,17.077,15.391,15.448,2153414
05/17/2011,15.359,16.098,15.151,15.864,1683590
05/18/2011,15.928,16.256,15.624,16.193,1296103
05/19/2011,16.224,16.531,15.751,16.067,577083
05/20/2011,16.142,16.357,15.966,15.984,520537
05/23/2011,15.782,16.212,15.707,16.073,354852
05/24/2011,16.187,16.187,15.568,15.789,817278
05/25/2011,15.732,15.909,15.637,15.782,431829
05/26/2011,15.732,16.104,15.391,15.896,435982
05/27/2011,15.953,16.408,15.928,16.022,650842
05/31/2011,16.224,16.269,15.89,16.06,2978480
06/01/2011,16.022,16.149,15.795,16.054,580518
06/02/2011,15.972,16.218,15.94,15.991,375620
06/03/2011,15.839,16.044,15.789,15.947,699144
06/06/2011,15.89,16.003,15.315,15.46,583318
06/07/2011,15.536,15.574,15.025,15.422,410340
06/08/2011,15.454,15.454,15.138,15.372,509676
06/09/2011,15.467,16.048,15.378,15.947,704900
06/10/2011,15.877,16.319,15.877,16.187,923394
06/13/2011,16.262,16.326,16.193,16.294,732878
06/14/2011,16.42,16.723,16.269,16.654,842491
06/15/2011,16.559,16.768,16.243,16.528,1118485
06/16/2011,16.559,17.071,16.326,16.97,1024828
06/17/2011,17.008,17.254,16.793,17.058,968062
06/20/2011,17.052,17.052,16.692,16.755,434617
06/21/2011,16.919,16.989,16.698,16.768,739808
06/22/2011,16.793,16.894,16.262,16.597,764575
06/23/2011,16.528,16.61,16.111,16.414,807017
06/24/2011,16.427,16.957,16.079,16.307,7708650
06/27/2011,16.338,16.584,16.104,16.471,706510
06/28/2011,16.509,16.749,16.458,16.61,872933
06/29/2011,16.61,16.831,16.515,16.572,456082
06/30/2011,16.597,16.97,16.168,16.206,1138718
07/01/2011,16.199,16.199,15.612,15.934,1094680
07/05/2011,15.966,15.966,15.694,15.757,441977
07/06/2011,15.694,15.852,15.65,15.719,457818
07/07/2011,15.82,15.871,15.675,15.713,620344
07/08/2011,15.58,15.798,15.491,15.65,559791
07/11/2011,15.542,15.624,15.167,15.246,314818
07/12/2011,15.214,15.328,15.17,15.252,380613
07/13/2011,15.29,15.441,15.107,15.22,390665
07/14/2011,15.302,15.353,14.93,14.949,259651
07/15/2011,15.088,15.239,14.911,15.069,296915
07/18/2011,15.012,15.157,14.646,14.854,227548
07/19/2011,14.936,15.138,14.898,15.012,325255
07/20/2011,15.043,15.05,14.753,14.974,159962
07/21/2011,14.974,15.043,14.898,14.961,445267
07/22/2011,14.955,15.006,14.854,14.961,219078
07/25/2011,14.905,14.987,14.829,14.898,343157
07/26/2011,14.835,14.98,14.709,14.835,243066
07/27/2011,14.766,14.766,14.475,14.627,380593
07/28/2011,14.652,14.753,14.582,14.74,342681
07/29/2011,14.639,14.766,14.494,14.715,348933
08/01/2011,14.791,15.088,14.456,14.677,414329
08/02/2011,14.658,14.759,13.976,14.008,537715
08/03/2011,14.039,14.065,13.61,13.989,302183
08/04/2011,13.85,13.85,12.663,12.675,459040
08/05/2011,12.764,13.01,12.631,12.884,944821
08/08/2011,12.675,12.928,11.406,11.494,852676
08/09/2011,11.602,11.62,10.452,11.362,1108729
08/10/2011,11.223,11.684,10.995,11.45,864544
08/11/2011,11.557,12.195,11.368,12.157,671239
08/12/2011,12.233,12.347,11.924,12.195,540138
08/15/2011,12.303,14.02,12.303,13.521,495440
08/16/2011,13.389,13.433,12.814,13.269,434895
08/17/2011,13.357,13.774,12.694,12.953,712949
08/18/2011,12.713,12.713,11.943,12.46,739244
08/19/2011,12.296,12.713,12.132,12.391,558261
08/22/2011,12.599,12.805,11.671,11.753,532746
08/23/2011,11.81,12.176,11.658,12.138,675805
08/24/2011,12.1,13.032,11.987,12.934,391637
08/25/2011,13.029,13.117,12.328,12.524,452082
08/26/2011,12.41,12.903,12.164,12.738,300632
08/29/2011,12.852,13.098,12.669,13.098,365247
08/30/2011,13.023,13.168,12.82,13.054,284866
08/31/2011,13.294,14.702,13.199,14.443,1576528
09/01/2011,14.513,14.747,14.096,14.147,642186
09/02/2011,13.938,14.254,13.736,13.989,802977
09/06/2011,13.701,14.096,13.465,13.976,672397
09/07/2011,14.185,14.305,13.932,14.096,829086
09/08/2011,14.084,14.62,13.989,14.526,894984
09/09/2011,14.361,14.538,13.812,14.052,947160
09/12/2011,13.831,14.406,13.761,14.349,422654
09/13/2011,14.374,14.532,14.147,14.317,273848
09/14/2011,14.437,14.753,14.393,14.614,382482
09/15/2011,14.772,14.867,14.507,14.791,261063
09/16/2011,14.557,15.182,14.557,14.848,613658
09/19/2011,14.671,14.766,14.412,14.627,384806
09/20/2011,14.747,14.98,14.229,14.374,409638
09/21/2011,14.33,14.766,14.235,14.38,608247
09/22/2011,13.926,14.14,13.742,13.945,868875
09/23/2011,13.894,14.071,13.073,13.578,522693
09/26/2011,13.622,13.698,13.13,13.622,347030
09/27/2011,13.919,14.38,13.736,13.894,554078
09/28/2011,13.907,14.071,13.086,13.231,513398
09/29/2011,13.427,13.66,12.865,13.269,313614
09/30/2011,12.94,13.187,12.599,12.612,449050
10/03/2011,12.511,12.663,12.1,12.157,602235
10/04/2011,12.037,12.214,11.583,12.031,661134
10/05/2011,12.157,12.732,11.816,12.681,328033
10/06/2011,12.612,13.237,12.555,13.206,348160
10/07/2011,13.25,13.345,12.524,12.865,432318
10/10/2011,13.092,13.452,12.865,13.111,353576
10/11/2011,12.997,13.622,12.858,13.263,356887
10/12/2011,13.37,13.49,13.193,13.25,362471
10/13/2011,13.149,13.338,12.808,13.262,255078
10/14/2011,13.326,13.654,13.174,13.578,291589
10/17/2011,13.566,13.825,13.452,13.528,373593
10/18/2011,13.591,14.273,13.502,14.084,700925
10/19/2011,14.058,14.772,14.058,14.443,356175
10/20/2011,14.462,14.646,14.336,14.462,207979
10/21/2011,14.728,15.025,14.526,14.873,270475
10/24/2011,17.058,17.917,16.925,17.848,5475121
10/25/2011,17.759,18.549,17.645,18.321,2315443
10/26/2011,18.504,18.631,17.942,17.968,1431364
10/27/2011,18.138,18.441,17.494,17.822,2102210
10/28/2011,17.702,18.031,17.683,17.885,764439
10/31/2011,17.772,17.936,17.639,17.69,758722
11/01/2011,17.368,17.816,17.304,17.734,648959
11/02/2011,17.968,18.094,17.589,17.658,959200
11/03/2011,17.866,17.949,17.488,17.841,767589
11/04/2011,17.677,17.942,17.677,17.917,1256863
11/07/2011,17.803,18.416,17.803,18.271,1592761
11/08/2011,18.391,18.435,17.917,18.321,559173
11/09/2011,17.898,18.321,17.873,17.986,572169
11/10/2011,18.176,18.315,17.986,18.226,598790
11/11/2011,18.435,18.675,18.359,18.58,657564
11/14/2011,18.479,18.599,18.277,18.334,278867
11/15/2011,18.283,18.454,17.892,18.125,262831
11/16/2011,18.056,18.372,17.589,17.728,545655
11/17/2011,17.683,18.226,17.412,17.582,472063
11/18/2011,17.563,17.645,17.368,17.563,345767
11/21/2011,17.386,17.544,17.368,17.506,396347
11/22/2011,17.488,17.829,17.33,17.5,302285
11/23/2011,17.38,17.652,17.368,17.576,399315
11/25/2011,17.532,17.671,17.532,17.57,101604
11/28/2011,17.765,18.091,17.658,17.816,359775
11/29/2011,17.835,17.835,17.652,17.746,300503
11/30/2011,18.031,18.106,17.734,17.753,652912
12/01/2011,17.058,17.096,16.376,16.559,2538214
12/02/2011,16.679,16.938,16.288,16.288,402438
12/05/2011,16.66,16.66,16.319,16.414,702189
12/06/2011,16.319,17.071,16.319,16.824,707661
12/07/2011,16.749,17.184,16.704,16.957,307573
12/08/2011,16.831,16.976,16.534,16.679,289719
12/09/2011,16.742,16.907,16.648,16.736,403440
12/12/2011,16.673,16.679,16.42,16.638,222605
12/13/2011,16.698,16.856,16.433,16.477,428869
12/14/2011,16.3,16.401,16.142,16.171,472046
12/15/2011,16.319,16.42,16.168,16.262,371464
12/16/2011,16.174,16.281,15.467,15.934,807281
12/19/2011,15.953,16.098,15.561,15.637,360967
12/20/2011,15.536,16.515,15.536,16.49,397984
12/21/2011,16.471,16.704,16.269,16.685,129833
12/22/2011,16.768,16.862,16.61,16.667,155536
12/23/2011,16.717,16.774,16.61,16.667,83073
12/27/2011,16.673,16.907,16.673,16.812,114034
12/28/2011,16.812,16.824,16.275,16.326,143698
12/29/2011,16.307,16.591,16.243,16.521,135676
12/30/2011,16.521,16.591,16.275,16.439,133298
01/03/2012,16.704,16.875,16.603,16.78,189429
01/04/2012,16.679,17.033,16.528,16.603,183532
01/05/2012,16.862,18.088,16.307,16.711,1476125
01/06/2012,16.749,16.957,16.648,16.742,199034
01/09/2012,16.768,16.938,16.578,16.894,183348
01/10/2012,17.039,17.128,16.957,16.995,300843
01/11/2012,16.957,17.128,16.862,17.052,725770
01/12/2012,17.128,17.128,16.78,16.85,279984
01/13/2012,16.736,16.938,16.736,16.932,78920
01/17/2012,17.071,17.589,16.932,17.14,463681
01/18/2012,17.14,17.608,17.14,17.421,235247
01/19/2012,17.424,17.529,17.064,17.115,276062
01/20/2012,17.109,17.147,16.559,16.9,1369270
01/23/2012,16.907,17.184,16.9,16.913,821892
01/24/2012,16.799,17.115,16.736,17.033,309322
01/25/2012,16.982,17.083,16.925,17.014,180110
01/26/2012,17.121,17.128,16.717,16.913,453081
01/27/2012,16.818,17.14,16.812,17.115,105287
01/30/2012,16.97,17.109,16.85,16.862,176432
01/31/2012,16.976,17.001,16.673,16.711,294912
02/01/2012,16.799,16.951,16.641,16.711,1383055
02/02/2012,16.736,16.976,16.477,16.648,1083354
02/03/2012,16.856,16.957,16.717,16.73,540550
02/06/2012,16.654,16.793,16.616,16.78,586672
02/07/2012,16.749,17.311,16.749,17.202,422537
02/08/2012,17.254,17.336,17.109,17.128,252551
02/09/2012,17.21,17.311,16.799,17.14,285274
02/10/2012,16.957,16.957,16.812,16.907,127233
02/13/2012,17.052,17.134,16.774,17.083,97544
02/14/2012,17.039,17.197,16.925,17.083,147522
02/15/2012,17.134,17.137,16.913,17.083,267351
02/16/2012,17.058,17.323,17.027,17.273,470001
02/17/2012,17.279,17.361,17.205,17.292,148192
02/21/2012,17.254,17.462,17.216,17.368,382108
02/22/2012,17.38,17.429,17.083,17.102,136875
02/23/2012,17.071,17.304,17.058,17.216,156080
02/24/2012,17.21,17.235,17.039,17.096,266940
02/27/2012,17.014,17.942,16.951,17.645,449222
02/28/2012,17.639,17.778,17.51,17.765,888669
02/29/2012,17.765,19.029,17.652,17.923,956591
03/01/2012,18.05,18.176,17.854,17.854,625232
03/02/2012,17.86,18.328,17.86,18.012,337355
03/05/2012,17.911,18.403,17.683,18.391,196032
03/06/2012,18.233,18.34,17.848,17.955,244861
03/07/2012,17.986,18.119,17.683,17.765,613947
03/08/2012,17.885,18.05,17.658,18.018,291124
03/09/2012,18.018,18.41,17.791,18.144,555987
03/12/2012,18.088,18.29,18.024,18.106,151830
03/13/2012,18.157,18.492,18.005,18.189,299918
03/14/2012,18.144,18.29,18.031,18.081,175915
03/15/2012,17.999,18.119,17.911,18.05,149964
03/16/2012,18.05,18.144,17.841,18.138,841816
03/19/2012,18.088,18.555,18.005,18.315,423996
03/20/2012,18.264,18.694,18.258,18.309,484905
03/21/2012,18.346,18.864,18.302,18.624,486036
03/22/2012,18.479,18.719,18.384,18.41,339790
03/23/2012,18.435,18.485,18.245,18.352,211367
03/26/2012,18.454,18.946,18.422,18.902,474735
03/27/2012,18.877,18.972,18.542,18.624,280297
03/28/2012,18.612,18.959,18.612,18.751,394517
03/29/2012,18.681,18.789,18.473,18.732,350160
03/30/2012,18.852,18.909,18.334,18.41,639458
04/02/2012,18.378,18.751,18.277,18.435,1328021
04/03/2012,18.422,18.789,18.321,18.485,1670541
04/04/2012,18.309,18.504,18.144,18.296,602672
04/05/2012,18.189,18.801,18.132,18.53,646759
04/09/2012,18.264,18.586,18.264,18.53,321798
04/10/2012,18.517,18.732,18.201,18.372,444722
04/11/2012,18.536,18.852,18.378,18.833,578133
04/12/2012,18.833,18.927,18.725,18.852,782591
04/13/2012,18.77,18.82,18.618,18.732,434018
04/16/2012,18.365,18.864,18.365,18.681,445742
04/17/2012,18.075,18.915,18.05,18.877,1891009
04/18/2012,19.231,19.515,19.13,19.313,938117
04/19/2012,19.332,19.698,19.186,19.578,865387
04/20/2012,19.837,19.894,19.325,19.483,892011
04/23/2012,19.231,19.395,18.586,18.921,994874
04/24/2012,18.978,19.262,18.807,19.104,394786
04/25/2012,19.287,19.49,19.029,19.37,225279
04/26/2012,19.313,19.584,19.313,19.471,242697
04/27/2012,19.527,19.591,19.376,19.502,355525
04/30/2012,19.445,20.11,19.382,20.08,1037666
05/01/2012,20.06,20.21,19.868,19.932,759009
05/02/2012,19.862,19.862,19.527,19.736,782293
05/03/2012,19.704,19.831,18.871,19.066,1311653
05/04/2012,18.953,18.953,18.315,18.523,2761954
05/07/2012,18.536,18.914,18.416,18.839,898517
05/08/2012,18.738,18.984,18.637,18.927,1159587
05/09/2012,18.719,20.045,18.511,19.805,1954194
05/10/2012,19.824,20.2,19.711,20.11,909605
05/11/2012,20.01,20.15,19.988,20.14,725384
05/14/2012,19.982,20.06,19.584,19.66,744272
05/15/2012,19.628,19.666,19.237,19.287,515266
05/16/2012,19.281,19.287,18.864,18.902,462934
05/17/2012,18.909,19.117,18.763,18.776,805877
05/18/2012,18.732,19.149,18.504,18.504,957369
05/21/2012,18.555,18.927,18.479,18.795,603836
05/22/2012,18.845,19.199,18.763,18.883,785267
05/23/2012,18.757,19.136,18.555,19.041,327269
05/24/2012,19.06,19.167,18.782,19.167,273971
05/25/2012,19.117,19.243,18.867,19.237,253424
05/29/2012,19.306,19.37,19.079,19.332,292818
05/30/2012,19.174,19.218,18.975,19.13,271810
05/31/2012,19.092,19.262,18.953,19.035,612603
06/01/2012,18.795,19.338,18.467,18.549,558582
06/04/2012,18.536,18.637,17.885,18.504,439184
06/05/2012,18.403,18.681,18.252,18.359,527929
06/06/2012,18.479,18.896,18.451,18.845,350903
06/07/2012,19.079,19.18,18.902,18.921,453857
06/08/2012,18.902,19.06,18.725,18.991,256448
06/11/2012,19.186,19.186,18.757,18.826,612639
06/12/2012,18.89,19.357,18.833,19.313,424938
06/13/2012,19.306,19.344,18.921,19.047,328547
06/14/2012,19.092,19.515,19.054,19.37,204139
06/15/2012,19.546,19.565,19.237,19.502,459538
06/18/2012,19.414,19.452,19.269,19.42,301064
06/19/2012,19.426,19.897,19.426,19.887,675677
06/20/2012,19.862,20.15,19.812,19.944,391475
06/21/2012,19.988,20.108,19.243,19.269,456602
06/22/2012,19.401,19.651,19.313,19.565,488707
06/25/2012,19.344,19.401,19.215,19.376,251231
06/26/2012,19.458,19.673,19.275,19.591,474063
06/27/2012,19.654,19.805,19.325,19.767,228718
06/28/2012,19.635,19.963,19.635,19.887,469428
06/29/2012,20.05,20.29,19.98,20.18,956540
07/02/2012,20.18,20.21,19.805,20.21,398406
07/03/2012,20.21,20.23,20.14,20.2,381032
07/05/2012,20.21,20.35,20.02,20.18,335359
07/06/2012,19.963,20.25,19.881,20.1,166042
07/09/2012,20.08,20.15,19.83,20.08,171496
07/10/2012,20.21,20.46,20.03,20.36,1511231
07/11/2012,20.46,20.49,20.32,20.37,841808
07/12/2012,20.26,20.46,20.07,20.4,865468
07/13/2012,20.48,20.68,20.32,20.65,1327534
07/16/2012,20.65,20.72,20.51,20.59,813922
07/17/2012,20.67,20.83,20.3,20.66,354274
07/18/2012,20.6,20.93,20.35,20.39,754883
07/19/2012,20.46,20.62,20.15,20.24,414386
07/20/2012,20.15,20.78,19.93,20.68,661726
07/23/2012,20.39,20.54,20.27,20.41,269155
07/24/2012,20.44,20.56,20.23,20.42,348141
07/25/2012,20.44,20.59,20.21,20.33,177965
07/26/2012,20.55,20.78,20.32,20.38,215395
07/27/2012,20.4,20.91,20.22,20.87,394532
07/30/2012,20.89,21.45,20.89,21.29,569511
07/31/2012,21.18,21.42,21.11,21.29,400932
08/01/2012,21.38,21.45,21.07,21.11,523375
08/02/2012,20.97,21.38,20.91,21.21,450632
08/03/2012,21.39,21.91,21.33,21.59,793325
08/06/2012,21.68,21.94,21.65,21.91,399767
08/07/2012,21.95,22.01,21.8,22,675552
08/08/2012,21.95,22.1,21.21,21.5,859788
08/09/2012,21.4,21.6,21.2,21.47,616242
08/10/2012,21.44,21.55,21.4,21.48,532867
08/13/2012,21.51,21.55,21.37,21.54,384663
08/14/2012,21.63,22.06,21.56,21.93,524299
08/15/2012,21.95,22.32,21.84,22.26,1104532
08/16/2012,22.24,22.87,22.24,22.75,1723879
08/17/2012,22.74,23.36,22.69,23.19,1601671
08/20/2012,23.08,23.19,22.77,23.15,397455
08/21/2012,23.23,23.23,22.58,22.76,624759
08/22/2012,22.81,22.81,22.41,22.43,1584168
08/23/2012,22.47,22.59,22.26,22.26,575925
08/24/2012,22.28,22.3,21.92,22.22,490363
08/27/2012,22.31,22.55,22.21,22.31,284776
08/28/2012,22.26,22.57,22.21,22.41,276314
08/29/2012,22.41,22.57,22.41,22.43,157178
08/30/2012,22.32,22.38,22.17,22.22,322643
08/31/2012,22.39,22.53,22.25,22.45,226231
09/04/2012,22.47,22.49,22.21,22.36,398589
09/05/2012,22.4,22.42,21.87,21.89,821318
09/06/2012,22.05,22.8,21.99,22.53,743681
09/07/2012,22.63,22.9,22.52,22.82,477539
09/10/2012,22.87,23.01,22.73,22.81,209528
09/11/2012,22.81,22.94,22.58,22.66,454218
09/12/2012,22.69,23.18,22.67,22.7,798545
09/13/2012,22.68,23.3,22.62,23.13,357180
09/14/2012,23.18,23.56,23.01,23.35,451397
09/17/2012,23.3,23.3,23.07,23.21,284153
09/18/2012,23.08,23.26,23.08,23.25,301865
09/19/2012,23.25,23.82,23.19,23.54,824526
09/20/2012,23.41,23.84,23.35,23.56,446525
09/21/2012,23.77,23.94,23.67,23.82,974794
09/24/2012,23.7,24.1,23.59,23.65,623746
09/25/2012,23.7,23.87,23.44,23.45,607561
09/26/2012,23.45,23.68,23.06,23.24,672217
09/27/2012,23.38,23.43,23.07,23.25,590095
09/28/2012,23.21,23.33,22.98,23.27,524291
10/01/2012,23.44,23.44,23.18,23.25,430044
10/02/2012,23.42,23.56,23.21,23.42,636530
10/03/2012,23.44,23.7,23.38,23.53,597244
10/04/2012,23.69,23.7,23.42,23.56,305513
10/05/2012,23.58,23.83,23.48,23.49,509823
10/08/2012,23.46,23.46,23.09,23.41,770293
10/09/2012,23.45,24.02,23.37,23.81,926397
10/10/2012,23.82,24,23.75,23.84,700266
10/11/2012,24.02,24.77,24.01,24.54,1694565
10/12/2012,24.52,24.85,24.13,24.54,404736
10/15/2012,24.55,24.79,24.38,24.71,497187
10/16/2012,24.68,24.82,24.58,24.68,1869451
10/17/2012,24.81,25.15,24.74,25.12,637737
10/18/2012,25.1,25.25,24.97,25.07,339302
10/19/2012,24.9,24.96,24.67,24.95,382468
10/22/2012,24.91,24.97,24.59,24.66,302327
10/23/2012,24.47,24.59,24.24,24.4,973363
10/24/2012,24.55,24.58,23.96,24.28,922409
10/25/2012,24.55,24.63,24.23,24.33,319278
10/26/2012,24.31,24.51,23.99,24.18,335064
10/31/2012,23.99,24.44,23.99,24.4,266283
11/01/2012,24.45,24.85,24.43,24.52,325246
11/02/2012,24.66,24.66,24.02,24.18,296180
11/05/2012,24.21,24.47,24.09,24.35,300254
11/06/2012,24.44,24.63,24.25,24.43,309841
11/07/2012,24.25,24.31,23.87,24.02,300723
11/08/2012,23.97,24.22,23.55,23.61,334929
11/09/2012,23.44,23.79,23.38,23.52,290895
11/12/2012,23.63,23.82,23.06,23.2,256961
11/13/2012,23.1,23.34,22.92,22.93,596660
11/14/2012,23.03,23.03,22.37,22.5,954591
11/15/2012,22.43,22.54,21.95,22.22,578198
11/16/2012,22.13,22.87,21.96,22.82,464627
11/19/2012,23.08,23.37,23.05,23.36,253242
11/20/2012,23.37,23.72,23.28,23.53,563350
11/21/2012,23.54,23.8,23.34,23.57,339913
11/23/2012,23.69,23.86,23.62,23.68,99928
11/26/2012,23.64,23.84,23.46,23.65,190524
11/27/2012,23.58,23.79,23.53,23.68,352605
11/28/2012,23.47,23.7,23.43,23.68,446090
11/29/2012,23.85,24.07,23.68,24.01,254127
11/30/2012,24.08,24.08,23.74,23.81,491741
12/03/2012,24.26,24.54,23.57,23.57,413326
12/04/2012,23.6,24.17,23.6,23.8,327521
12/05/2012,23.83,23.97,23.49,23.69,194161
12/06/2012,23.6,23.7,23.29,23.39,206061
12/07/2012,23.46,23.53,22.93,23.22,314959
12/10/2012,23.24,23.37,23.01,23.23,170782
12/11/2012,23.39,23.67,22.87,23.24,407518
12/12/2012,23.27,23.55,23.17,23.32,616140
12/13/2012,23.3,23.35,23.09,23.1,232217
12/14/2012,23.02,23.53,23.01,23.47,248422
12/17/2012,23.49,23.51,23.3,23.49,221889
12/18/2012,23.47,24.23,23.47,24.19,679758
12/19/2012,24.24,24.31,23.83,24.09,258197
12/20/2012,24.08,24.21,23.96,24.04,561864
12/21/2012,23.98,24.26,23.8,24.25,665237
12/24/2012,24.16,24.16,23.88,23.98,48958
12/26/2012,24.03,24.12,23.56,23.83,151927
12/27/2012,23.9,24.02,23.46,23.89,338830
12/28/2012,23.73,23.97,23.34,23.87,410503
12/31/2012,23.83,24.71,23.75,24.69,488448
01/02/2013,25.17,25.51,24.74,25.51,844678
01/03/2013,25.5,25.75,25.35,25.51,307902
01/04/2013,25.6,25.73,25.53,25.64,439278
01/07/2013,25.47,25.75,25.4,25.64,295846
01/08/2013,25.72,25.87,25.59,25.87,466436
01/09/2013,26.37,27.16,26.37,26.55,2672617
01/10/2013,26.71,26.9,26.18,26.45,559916
01/11/2013,26.51,26.61,26.27,26.42,432230
01/14/2013,26.42,26.57,26.24,26.43,502420
01/15/2013,26.3,26.5,26.1,26.32,283371
01/16/2013,26.27,26.44,26.06,26.19,247344
01/17/2013,26.28,26.44,26.18,26.33,133045
01/18/2013,26.27,26.52,26.15,26.44,672262
01/22/2013,26.42,26.52,26.29,26.39,397224
01/23/2013,26.42,26.47,25.79,26.05,1757916
01/24/2013,26.13,26.46,26.03,26.27,403496
01/25/2013,26.41,26.51,26.05,26.49,390255
01/28/2013,26.51,26.64,26.31,26.6,405388
01/29/2013,26.67,26.91,26.56,26.88,427499
01/30/2013,26.92,27.31,26.88,27.22,1241742
01/31/2013,27.25,27.37,27.09,27.27,892537
02/01/2013,27.45,28.17,27.35,28.17,1414193
02/04/2013,27.98,28.6,27.96,28.24,1548056
02/05/2013,28.28,28.66,28.17,28.63,1185579
02/06/2013,28.49,29.08,28.49,29.06,685900
02/07/2013,29.08,29.48,29.05,29.27,1479122
02/08/2013,29.35,29.79,29.35,29.49,503405
02/11/2013,29.76,30.11,29.49,29.7,1313234
02/12/2013,29.81,30.01,29.59,30,1944861
02/13/2013,30.09,30.31,30.02,30.19,403005
02/14/2013,30.18,30.56,29.95,29.99,432562
02/15/2013,29.99,30.24,29.61,29.85,782262
02/19/2013,29.91,29.95,29.65,29.71,516209
02/20/2013,29.7,29.8,29.04,29.06,731007
02/21/2013,29.05,29.28,28.12,28.87,870206
02/22/2013,29.02,29.48,28.82,29.47,588159
02/25/2013,29.58,29.65,28.79,28.79,413549
02/26/2013,28.99,29.03,28.24,28.55,756513
02/27/2013,28.55,29.03,28.55,28.94,600832
02/28/2013,28.94,29.18,28.82,29.1,595726
03/01/2013,28.74,30.36,28.28,30.09,1077890
03/04/2013,30.03,30.07,29.65,30,648826
03/05/2013,30.11,30.42,30,30.21,597153
03/06/2013,30.23,30.33,29.76,29.88,646488
03/07/2013,29.83,30.31,29.66,30.3,324025
03/08/2013,30.54,30.57,30.18,30.3,313866
03/11/2013,30.33,30.75,30.3,30.35,575792
03/12/2013,30.33,30.49,30.22,30.33,285250
03/13/2013,30.31,30.59,30.19,30.55,256844
03/14/2013,30.54,30.83,30.45,30.66,191843
03/15/2013,30.67,30.93,30.67,30.83,576927
03/18/2013,30.87,31.67,30.67,31.58,674563
03/19/2013,31.58,31.72,31.25,31.42,675814
03/20/2013,31.6,31.74,31.48,31.51,346183
03/21/2013,31.42,31.78,31.34,31.63,363608
03/22/2013,31.73,32.03,31.71,32.01,285082
03/25/2013,32.01,32.54,32.01,32.44,605128
03/26/2013,32.52,32.73,32.4,32.45,397504
03/27/2013,32.39,32.53,32.21,32.52,421644
03/28/2013,32.59,33.09,32.46,32.67,461327
04/01/2013,32.75,32.87,31.31,32.37,870598
04/02/2013,32.49,32.58,32.21,32.32,967979
04/03/2013,32.35,32.35,31.41,31.63,642062
04/04/2013,31.72,31.92,31.48,31.92,334865
04/05/2013,31.48,31.5,31.22,31.43,715167
04/08/2013,31.53,31.58,31.22,31.5,388090
04/09/2013,31.45,31.98,31.32,31.47,314051
04/10/2013,32.5,34.29,32.5,33.47,1111181
04/11/2013,33.56,34.77,33.44,34.13,1479643
04/12/2013,34.1,34.29,33.1,33.43,738911
04/15/2013,33.14,33.24,31.73,31.82,623389
04/16/2013,32.01,32.48,31.98,32.34,768259
04/17/2013,32.16,32.27,31.71,31.94,787785
04/18/2013,32.08,32.16,31.7,31.97,454901
04/19/2013,32.01,32.59,31.99,32.55,543823
04/22/2013,32.69,33.09,32.25,32.94,411185
04/23/2013,33.08,33.3,32.71,33.29,300938
04/24/2013,33.33,33.67,33.04,33.57,296756
04/25/2013,33.67,33.88,33.02,33.07,431005
04/26/2013,33.17,33.17,32.61,32.7,235631
04/29/2013,32.94,33.16,32.7,32.78,323001
04/30/2013,32.68,32.83,32.49,32.74,318711
05/01/2013,32.79,34.51,32.79,33.64,983603
05/02/2013,33.78,34.51,33.71,34.18,554891
05/03/2013,34.34,35.3,34.34,34.75,408952
05/06/2013,34.77,34.95,34.56,34.58,300823
05/07/2013,34.53,35.08,34.25,34.55,459887
05/08/2013,34.45,34.7,34.19,34.67,603039
05/09/2013,34.65,35.88,34.36,35.3,775727
05/10/2013,35.25,35.27,34.39,35.11,531820
05/13/2013,35.08,35.32,34.38,34.64,532787
05/14/2013,34.58,34.98,34.31,34.84,287091
05/15/2013,34.73,35.51,34.59,35.48,429762
05/16/2013,35.43,35.63,35.12,35.26,343695
05/17/2013,35.51,35.61,35.28,35.56,366008
05/20/2013,35.49,36.27,35.45,36.25,494332
05/21/2013,36.31,36.8,36.12,36.21,314035
05/22/2013,36.18,36.62,35.09,35.26,276882
05/23/2013,34.75,35.14,34.21,34.98,493531
05/24/2013,34.84,34.98,34.4,34.54,377495
05/28/2013,34.84,34.84,34.24,34.41,361398
05/29/2013,34.3,34.41,33.74,33.87,1024648
05/30/2013,33.88,34.02,33.62,33.71,521885
05/31/2013,33.66,33.79,33.14,33.14,558918
06/03/2013,33.16,33.27,32.08,32.7,1205182
06/04/2013,32.61,32.71,31.86,32.36,1075081
06/05/2013,32.24,33.33,32.05,32.48,801854
06/06/2013,32.55,32.89,32.26,32.86,875574
06/07/2013,33.11,33.22,32.77,33.03,309613
06/10/2013,33.14,33.36,32.89,33.33,484317
06/11/2013,33.52,33.52,32.98,33.09,273780
06/12/2013,33.41,33.41,32.79,32.91,275475
06/13/2013,32.83,33.93,32.62,33.78,430669
06/14/2013,33.76,34.42,33.58,34.11,353030
06/17/2013,34.31,34.92,34.28,34.83,573273
06/18/2013,34.89,35.62,34.6,35.29,583518
06/19/2013,35.22,35.29,34.53,34.63,490511
06/20/2013,34.31,34.32,33.03,33.26,1036031
06/21/2013,33.4,33.4,32.56,33.27,900999
06/24/2013,32.8,33.05,32.03,32.45,521616
06/25/2013,32.64,32.97,32.57,32.95,393825
06/26/2013,33.17,33.35,32.91,33.1,489990
06/27/2013,33.27,33.9,33.13,33.76,460454
06/28/2013,33.69,34.6,33.63,34.14,1348894
07/01/2013,34.27,35.02,34.27,34.87,470228
07/02/2013,34.93,35.58,34.92,35.56,583972
07/03/2013,35.56,35.91,35.32,35.9,323280
07/05/2013,36.28,36.45,35.92,36.44,392074
07/08/2013,36.62,37.15,36.41,37.14,401788
07/09/2013,37.39,37.7,36.94,37.1,515572
07/10/2013,37.15,37.3,36.01,36.12,624369
07/11/2013,36.41,36.46,35.39,35.51,907106
07/12/2013,35.49,35.91,35.49,35.66,626309
07/15/2013,35.9,35.9,35.34,35.8,1092603
07/16/2013,35.84,36.13,35.54,35.63,641391
07/17/2013,35.68,35.8,35.28,35.3,289013
07/18/2013,35.37,35.68,35.18,35.2,792961
07/19/2013,35.11,35.72,34.88,35.59,362850
07/22/2013,35.59,35.71,35.46,35.53,184481
07/23/2013,35.59,35.93,34.99,35.77,551392
07/24/2013,35.73,35.87,35.28,35.37,418374
07/25/2013,35.39,35.66,34.95,35.51,461237
07/26/2013,35.25,35.63,34.82,35.58,176537
07/29/2013,35.59,35.74,35.17,35.49,162051
07/30/2013,35.54,35.89,35.14,35.85,234164
07/31/2013,35.88,36.25,35.61,35.77,476631
08/01/2013,36.27,36.92,36.08,36.58,1218670
08/02/2013,36.53,36.82,36.17,36.51,305399
08/05/2013,36.43,36.6,35.97,36.45,257734
08/06/2013,36.43,36.49,35.87,35.95,418732
08/07/2013,35.82,36.14,35.67,36.09,822197
08/08/2013,36.52,37.02,35.37,35.68,798646
08/09/2013,35.44,36.09,35.12,35.86,1725495
08/12/2013,35.74,35.82,35.17,35.41,793626
08/13/2013,35.49,35.49,34.71,34.99,885241
08/14/2013,34.79,34.97,34.55,34.71,765980
08/15/2013,34.54,34.66,34.1,34.18,675547
08/16/2013,34.02,34.57,34.02,34.07,858394
08/19/2013,34.13,34.24,33.63,33.64,541917
08/20/2013,33.73,34.18,33.57,34.11,646172
08/21/2013,34.02,34.4,33.88,34.04,395975
08/22/2013,34.26,34.96,34.1,34.6,345401
08/23/2013,34.67,34.76,34.3,34.63,213249
08/26/2013,34.46,35.23,34.45,35.18,242694
08/27/2013,35,35.09,34.52,34.75,359796
08/28/2013,34.7,34.87,34.36,34.48,299088
08/29/2013,34.36,34.75,34.24,34.38,341510
08/30/2013,34.29,34.46,33.73,33.91,442319
09/03/2013,34.27,34.5,33.75,34.04,249877
09/04/2013,33.95,34.07,33.21,34.03,288256
09/05/2013,34.14,34.22,33.8,33.98,160921
09/06/2013,34.2,34.2,33.55,33.75,371298
09/09/2013,33.91,34.54,33.7,34.48,319772
09/10/2013,34.5,34.89,33.77,34.74,286862
09/11/2013,34.75,34.75,34.05,34.53,298722
09/12/2013,34.4,34.95,34.3,34.43,316343
09/13/2013,34.6,35.18,34.6,34.98,258664
09/16/2013,35.38,35.43,34.61,34.86,286175
09/17/2013,34.76,35.12,34.51,34.96,778434
09/18/2013,34.87,35.14,34.64,34.83,914500
09/19/2013,35.06,36.41,35.06,36.16,561574
09/20/2013,36.39,36.87,35.93,36.43,843027
09/23/2013,36.37,36.64,35.75,35.93,2356166
09/24/2013,35.86,37.03,35.85,36.69,407905
09/25/2013,36.83,37.04,36.64,36.8,240291
09/26/2013,36.75,37.11,36.64,36.88,327995
09/27/2013,36.8,36.85,36.45,36.54,355037
09/30/2013,36.2,36.57,35.98,36.53,540598
10/01/2013,36.42,37.55,36.25,37.17,453564
10/02/2013,37.08,37.33,36.48,37.06,392209
10/03/2013,36.88,37.31,36.12,36.4,410757
10/04/2013,36.41,36.94,36.33,36.66,242281
10/07/2013,36.54,36.62,36.12,36.14,246409
10/08/2013,36.15,36.37,35.34,35.73,448895
10/09/2013,35.81,35.94,35.22,35.54,414605
10/10/2013,35.99,36.63,35.79,36.63,327705
10/11/2013,36.45,37.23,36.45,37.07,437222
10/14/2013,36.73,37.23,36.55,37.04,289461
10/15/2013,36.8,37.58,36.72,36.84,344085
10/16/2013,37.14,37.53,37.06,37.4,347897
10/17/2013,37.32,38.27,37.32,37.97,394928
10/18/2013,38.44,38.63,37.69,37.97,588965
10/21/2013,38.17,38.68,37.77,38.65,439680
10/22/2013,38.94,40.11,38.87,39.47,1046134
10/23/2013,39.19,39.77,38.85,39.06,792794
10/24/2013,39.02,39.49,38.99,39.33,549671
10/25/2013,39.56,39.56,38.83,39.41,347064
10/28/2013,39.39,39.58,39.08,39.1,412350
10/29/2013,39.06,39.53,39.06,39.34,523984
10/30/2013,39.5,39.7,39.21,39.22,381890
10/31/2013,39.24,39.63,38.66,38.67,391916
11/01/2013,38.58,38.97,38.07,38.29,880790
11/04/2013,38.34,38.71,38.04,38.65,364257
11/05/2013,38.43,38.95,38.11,38.59,378377
11/06/2013,38.81,38.97,38.46,38.65,359248
11/07/2013,38.85,38.85,37.64,37.8,785085
11/08/2013,37.65,37.91,37.56,37.59,415317
11/11/2013,37.46,37.68,37.31,37.53,403438
11/12/2013,38.38,39.81,37.64,38.92,921484
11/13/2013,38.81,38.93,38.45,38.92,551157
11/14/2013,38.9,39.49,38.72,39.31,342433
11/15/2013,39.33,39.43,38.86,39.15,315823
11/18/2013,39.31,39.56,38.9,38.95,270359
11/19/2013,38.86,39.02,38.49,38.61,331287
11/20/2013,38.82,39.25,38.45,38.56,333906
11/21/2013,38.79,38.89,38.43,38.54,434593
11/22/2013,38.65,39.3,38.54,39.04,613070
11/25/2013,39,39.49,38.8,39.3,498543
11/26/2013,39.4,39.75,39.03,39.75,419569
11/27/2013,39.71,39.97,39.31,39.39,318352
11/29/2013,39.55,39.83,39.4,39.44,284933
12/02/2013,39.3,40.17,38.44,39.33,489661
12/03/2013,39.15,39.22,38.75,38.99,362015
12/04/2013,38.7,39.14,37.97,38.25,496996
12/05/2013,38.11,38.3,37.92,38.15,579798
12/06/2013,38.36,39.01,38.07,38.95,426129
12/09/2013,39.1,39.17,38.76,38.96,333329
12/10/2013,38.78,39.41,38.68,39.19,366631
12/11/2013,39.16,39.17,37.88,38.04,630649
12/12/2013,37.97,38.29,37.59,37.64,368866
12/13/2013,37.65,37.75,37.34,37.55,305820
12/16/2013,37.62,38.16,37.35,37.56,512650
12/17/2013,37.52,37.89,36.91,37.66,358722
12/18/2013,37.64,38.55,37.34,38.43,574025
12/19/2013,38.43,39.24,38.32,39.21,451002
12/20/2013,39.47,40,38.79,39.97,658842
12/23/2013,40.03,40.43,39.75,40.21,315090
12/24/2013,40.21,40.53,39.92,40.25,101236
12/26/2013,40.48,40.74,40.2,40.43,140190
12/27/2013,40.64,41.36,40.3,40.97,161672
12/30/2013,40.87,41.67,40.78,41.53,3417077
12/31/2013,41.6,42.05,41.53,41.9,347064
01/02/2014,41.57,42.55,40.17,40.97,6154476
01/03/2014,40.86,41.34,40.81,40.88,427977
01/06/2014,40.95,41.21,40.43,40.66,559629
01/07/2014,40.81,41.1,40.41,40.49,777120
01/08/2014,40.58,40.78,40.29,40.72,503644
01/09/2014,40.92,41.26,40.48,40.55,652002
01/10/2014,40.61,41.09,40.5,40.99,552224
01/13/2014,41.01,41.09,39.84,40.19,609591
01/14/2014,40.47,40.67,40.21,40.61,434878
01/15/2014,40.58,40.69,40.31,40.32,303428
01/16/2014,40.29,40.5,40.2,40.42,538332
01/17/2014,40.34,40.68,40.34,40.48,303873
01/21/2014,40.8,40.9,40.41,40.59,397170
01/22/2014,40.65,40.95,40.43,40.58,499025
01/23/2014,40.49,40.56,39.95,40.11,602311
01/24/2014,39.84,40.23,39.36,39.42,931607
01/27/2014,39.56,39.73,38.98,39.08,892192
01/28/2014,39.18,39.84,38.98,39.76,649017
01/29/2014,39.42,40.01,39.36,39.49,525350
01/30/2014,39.88,40.2,39.63,39.88,440582
01/31/2014,39.21,40.03,39.21,39.69,859122
02/03/2014,39.81,40.03,38.52,38.79,616034
02/04/2014,39.04,39.16,38.57,38.96,343792
02/05/2014,38.87,39.16,38.49,38.78,438893
02/06/2014,38.96,39.62,38.86,39.34,282349
02/07/2014,39.49,39.72,39.12,39.69,621269
02/10/2014,39.53,39.6,39.08,39.46,534459
02/11/2014,39.42,39.62,39.37,39.49,1089250
02/12/2014,39.48,39.72,39.35,39.46,465011
02/13/2014,39.21,40.7,39.21,39.76,1772241
02/14/2014,39.76,39.94,39.58,39.72,1331890
02/18/2014,39.92,40.3,39.66,39.86,1395118
02/19/2014,39.77,40.1,39.4,39.42,1428317
02/20/2014,39.51,39.84,39.26,39.52,508428
02/21/2014,39.67,40.2,39.61,39.95,963375
02/24/2014,40.14,40.92,39.99,40.88,635120
02/25/2014,40.75,41.14,40.56,40.95,384925
02/26/2014,41.13,41.15,40.75,41.12,389558
02/27/2014,41.09,41.4,40.98,41.39,723582
02/28/2014,42.84,44.02,41.71,43.25,1117942
03/03/2014,42.91,43.31,42.58,42.86,748454
03/04/2014,43.3,43.75,43.01,43.6,697813
03/05/2014,43.63,43.69,43.25,43.34,433105
03/06/2014,43.5,43.72,43.22,43.36,334248
03/07/2014,43.51,43.79,43.12,43.4,468536
03/10/2014,43.41,43.44,42.46,43.02,673229
03/11/2014,42.98,43.08,42.43,42.58,378253
03/12/2014,42.36,42.72,42.11,42.62,539414
03/13/2014,42.67,42.67,41.74,42,519770
03/14/2014,42.37,42.67,42,42.21,695647
03/17/2014,42.34,42.52,42.14,42.25,338945
03/18/2014,42.41,42.93,42.16,42.68,360162
03/19/2014,42.55,42.94,41.61,41.97,325179
03/20/2014,41.84,42.05,41.46,41.77,534793
03/21/2014,42.02,42.16,41.41,41.54,448400
03/24/2014,41.55,41.7,41.01,41.26,609480
03/25/2014,41.38,41.76,41.04,41.31,562581
03/26/2014,41.65,41.72,41.06,41.09,525505
03/27/2014,41.14,41.5,40.61,41.42,352983
03/28/2014,41.52,42,41.4,41.67,315697
03/31/2014,42.16,42.58,41.69,42.33,422245
04/01/2014,42.31,43.03,42.11,42.98,582797
04/02/2014,43.1,43.57,42.8,43.47,255296
04/03/2014,43.32,43.88,43.32,43.62,422826
04/04/2014,43.95,43.98,42.82,43.03,433915
04/07/2014,42.82,42.98,41.8,41.89,437321
04/08/2014,41.95,42.44,41.47,42.27,287654
04/09/2014,42.47,42.58,41.94,42.43,261134
04/10/2014,42.35,42.39,41.8,41.97,617962
04/11/2014,41.69,42,41.32,41.55,458713
04/14/2014,41.91,42.05,41.64,42.02,466771
04/15/2014,42.1,42.58,41.34,42.29,550760
04/16/2014,42.6,42.66,42.3,42.63,513046
04/17/2014,42.56,42.83,42.36,42.62,260120
04/21/2014,42.71,43.15,42.53,43.15,196097
04/22/2014,43.14,43.3,42.86,42.91,407295
04/23/2014,42.87,42.94,42.62,42.76,424295
04/24/2014,42.98,43.16,42,42.09,497383
04/25/2014,41.96,41.97,41.47,41.63,417825
04/28/2014,41.69,42.07,41.16,41.6,350080
04/29/2014,41.74,42.11,41.58,41.64,425070
04/30/2014,41.61,41.78,40.99,41.18,384603
05/01/2014,41.02,41.35,40.73,41.33,680878
05/02/2014,41.55,42.22,41.4,41.63,1715988
05/05/2014,41.27,41.67,41.24,41.55,307849
05/06/2014,41.47,41.54,40.88,41.01,390968
05/07/2014,41.4,41.47,40.55,41.15,627653
05/08/2014,41.04,41.42,40.89,41.01,511206
05/09/2014,40.62,42.12,40.62,41.63,1129056
05/12/2014,41.82,42.25,41.59,41.91,962083
05/13/2014,41.98,42.36,41.73,42.19,384417
05/14/2014,42.2,42.49,41.98,42.21,883006
05/15/2014,42.14,42.47,41.51,42.42,757188
05/16/2014,42.35,42.37,41.9,42.35,448418
05/19/2014,42.25,43.11,42.19,42.86,507479
05/20/2014,42.68,43,42.27,42.35,569064
05/21/2014,42.43,42.77,42.34,42.68,294825
05/22/2014,42.72,43.63,42.72,43.39,326795
05/23/2014,43.5,43.8,43.28,43.71,480968
05/27/2014,44,44.15,43.76,44.03,216273
05/28/2014,43.97,44.44,43.83,44.31,374963
05/29/2014,44.38,44.38,44,44.15,295976
05/30/2014,44.2,44.33,43.77,43.96,423216
06/02/2014,43.94,44.2,43.25,43.61,558908
06/03/2014,43.52,43.72,43.23,43.55,353878
06/04/2014,43.48,43.54,43.24,43.49,217289
06/05/2014,43.54,44.48,43.5,44.38,480803
06/06/2014,44.65,45.02,44.36,45,344296
06/09/2014,45.08,45.53,44.66,44.75,405865
06/10/2014,44.71,44.82,44.31,44.48,618119
06/11/2014,44.35,44.35,43.81,44.06,263059
06/12/2014,44.09,44.1,43.45,43.94,362653
06/13/2014,44.04,44.2,43.21,44.2,334874
06/16/2014,44.09,45.77,43.89,45.75,564331
06/17/2014,46.53,47.13,45.9,46.88,863339
06/18/2014,46.89,47.18,46.56,46.83,547739
06/19/2014,47.99,48.49,47.27,48.05,486062
06/20/2014,48.09,50.17,47.81,49.78,1174662
06/23/2014,49.81,50.11,49.43,49.99,407854
06/24/2014,50.06,51.62,50.06,50.72,995840
06/25/2014,50.32,50.94,50.14,50.74,414456
06/26/2014,50.75,50.85,50.27,50.53,470469
06/27/2014,50.27,50.69,50.24,50.49,589294
06/30/2014,50.62,51.12,50.23,51.02,414528
07/01/2014,50.96,52.44,50.85,52.41,780336
07/02/2014,52.12,52.54,51.16,51.43,935184
07/03/2014,51.47,51.7,50.92,51.7,208638
07/07/2014,51.54,51.54,50.69,50.79,343998
07/08/2014,50.54,50.67,50.29,50.58,388946
07/09/2014,50.65,51.27,50.47,51.26,358913
07/10/2014,50.38,51.04,50.29,50.83,468541
07/11/2014,50.77,51.19,50.76,50.88,246557
07/14/2014,51.26,51.26,50.85,50.96,199846
07/15/2014,50.89,50.94,50.31,50.47,289267
07/16/2014,50.74,50.98,50.41,50.89,305630
07/17/2014,50.66,51.17,50.44,50.7,348127
07/18/2014,50.56,51.45,50.54,51.31,413802
07/21/2014,51.09,51.46,50.71,51.4,249030
07/22/2014,51.53,52.23,51.53,52.13,304880
07/23/2014,52.1,53.02,51.87,52.94,548647
07/24/2014,53.08,53.25,52.46,52.78,595869
07/25/2014,52.04,52.69,51.73,51.77,284206
07/28/2014,51.82,52,51.22,51.53,321022
07/29/2014,51.62,51.9,51.51,51.61,367462
07/30/2014,51.86,51.92,51,51.26,509644
07/31/2014,50.74,50.98,49.62,49.88,652734
08/01/2014,49.93,50.6,49.49,49.9,781542
08/04/2014,50.09,50.5,49.91,50.36,366148
08/05/2014,50.1,50.4,49.53,49.86,356941
08/06/2014,49.71,50.36,49.54,49.94,577647
08/07/2014,50.11,51.37,50.08,50.65,969513
08/08/2014,49.75,52.01,49,51.9,864830
08/11/2014,52.16,53.54,52.16,53.07,794001
08/12/2014,52.78,53.02,52.33,52.45,534769
08/13/2014,52.6,53.04,52.4,53.04,657785
08/14/2014,53.22,53.48,52.95,53.15,186326
08/15/2014,53.34,53.96,53.06,53.61,655450
08/18/2014,54.01,54.13,53.13,53.37,355422
08/19/2014,53.36,53.95,53.11,53.9,225173
08/20/2014,53.68,54.04,53.28,53.97,171505
08/21/2014,53.82,54.07,53.28,54.03,341676
08/22/2014,54.01,54.4,53.62,54.11,328243
08/25/2014,54.26,54.66,54.11,54.33,475379
08/26/2014,54.59,56.64,54.08,55.77,980487
08/27/2014,55.67,56,55.53,55.96,307659
08/28/2014,55.89,56.44,55.62,56.26,335747
08/29/2014,56.2,57.17,56.18,56.96,405584
09/02/2014,57.05,57.67,57,57.3,434648
09/03/2014,57.39,57.77,57.24,57.55,719341
09/04/2014,57.6,57.68,56.71,56.8,487937
09/05/2014,56.7,56.87,56.39,56.61,281726
09/08/2014,56.61,56.85,56.27,56.73,273152
09/09/2014,56.66,56.68,56.09,56.16,491746
09/10/2014,56.16,56.33,55.96,56.19,432654
09/11/2014,56.01,56.53,55.63,56.4,210888
09/12/2014,56.45,56.46,55.22,55.35,438776
09/15/2014,55.24,55.37,54.57,55.25,255622
09/16/2014,55.2,56.52,55.2,56.4,256445
09/17/2014,56.33,56.77,55.81,56.31,251000
09/18/2014,56.32,56.63,56,56.53,209545
09/19/2014,56.48,56.79,56.33,56.42,426860
09/22/2014,56.26,56.26,54.8,54.91,317668
09/23/2014,54.78,54.89,53.84,54.33,743833
09/24/2014,54.47,55.25,53.9,55.15,378078
09/25/2014,55.2,55.2,53.8,53.89,453679
09/26/2014,53.85,54.7,53.66,54.37,428671
09/29/2014,53.88,54.78,53.66,54.7,350983
09/30/2014,54.63,54.81,53.99,54.06,447162
10/01/2014,54.09,54.74,53.48,53.84,678486
10/02/2014,53.63,54.03,52.37,53.76,593535
10/03/2014,53.82,54.65,53.76,53.87,339765
10/06/2014,54.11,54.11,53.17,53.42,457800
10/07/2014,53.22,53.42,52.36,52.47,447111
10/08/2014,52.33,52.62,49.3,51.95,1390926
10/09/2014,51.78,51.81,46.7,47.12,2612071
10/10/2014,46.7,47.52,45.42,46.33,2407046
10/13/2014,46.22,46.91,43.24,43.32,1500494
10/14/2014,43.49,46.67,41.55,43.83,2087085
10/15/2014,42.63,45.95,41.45,45.54,2080934
10/16/2014,44.95,49.58,44.95,48.74,1632773
10/17/2014,49.48,51.29,48.67,49.31,1703688
10/20/2014,49.31,49.65,48.37,49.23,645465
10/21/2014,49.34,50.98,49.13,50.49,743609
10/22/2014,50.72,51.03,49.2,49.22,449890
10/23/2014,49.68,50.87,49.59,49.83,693081
10/24/2014,50.02,50.2,48.96,49.98,717970
10/27/2014,49.94,49.94,48.69,49.2,922637
10/28/2014,49.04,49.76,48.69,49.76,1224188
10/29/2014,50.01,50.8,49.79,50.34,603973
10/30/2014,49.98,50.64,49.74,49.92,676287
10/31/2014,50.2,50.22,49.22,49.83,1282903
11/03/2014,50.06,51.04,49.56,49.88,647824
11/04/2014,49.5,49.76,47.46,48.3,600174
11/05/2014,48.52,49.14,48.11,48.73,584124
11/06/2014,48.39,49.47,48.39,48.9,949407
11/07/2014,50.11,51.94,49.5,50.62,1242614
11/10/2014,50.78,51.28,49.72,50.42,677621
11/11/2014,50.53,50.53,49.38,50,573655
11/12/2014,49.8,50.97,49.38,50.44,658206
11/13/2014,50.33,50.44,48.93,49.32,1311135
11/14/2014,49.58,51.1,49.58,51.07,775638
11/17/2014,50.78,51.98,50.54,51.74,1042804
11/18/2014,51.89,52.91,51.65,52.35,502736
11/19/2014,52.35,53.06,51.81,52.58,580454
11/20/2014,52.48,52.92,52.29,52.64,466920
11/21/2014,53.56,53.79,52.23,52.47,1118016
11/24/2014,52.4,52.71,51.97,52.43,674304
11/25/2014,52.63,53.18,51.9,52,717389
11/26/2014,51.98,52.17,51.53,51.69,821976
11/28/2014,49.72,49.72,48.12,48.22,1018844
12/01/2014,48.18,48.23,45.47,46.06,1610023
12/02/2014,45.99,47.51,45.84,46.67,2442158
12/03/2014,46.61,47.64,46.61,47.31,1136567
12/04/2014,47.38,47.72,46.84,47.17,711135
12/05/2014,46.92,47.22,46.35,46.46,472440
12/08/2014,46.27,46.65,43.56,43.85,1455711
12/09/2014,43.67,45.44,43.15,45.35,990385
12/10/2014,44.47,44.75,42.49,42.96,1844158
12/11/2014,43.1,44.04,42.23,42.36,1058536
12/12/2014,40.86,42.08,40.73,41.61,597647
12/15/2014,41.68,42.04,39.57,39.82,1603297
12/16/2014,39.22,41.29,38.65,39.85,840875
12/17/2014,39.93,42.51,39.7,42.4,797277
12/18/2014,43.31,43.73,41.87,42.94,657188
12/19/2014,43.07,43.91,42.5,43.82,792899
12/22/2014,43.17,43.93,42.68,43.15,487144
12/23/2014,43.39,43.85,43.02,43.25,557739
12/24/2014,43.16,43.78,42.87,43.05,270930
12/26/2014,43.69,43.88,43.05,43.56,296272
12/29/2014,43.78,45.15,43.76,44.85,749424
12/30/2014,44.7,45.01,44.34,44.54,477617
12/31/2014,44.53,45.54,44.03,44.58,723853
01/02/2015,44.71,45.52,44.53,45.13,469907
01/05/2015,44.66,44.83,42.56,42.87,928219
01/06/2015,42.87,43.41,41.06,41.91,979411
01/07/2015,41.91,42.79,40.51,41.22,877686
01/08/2015,41.78,42.53,41.35,41.84,484441
01/09/2015,41.82,42,41.11,41.56,587441
01/12/2015,41.27,41.69,39.16,39.63,777073
01/13/2015,39.89,40.08,37.64,38.11,957462
01/14/2015,37.57,38.41,37.04,38.11,802549
01/15/2015,38.83,39.23,38.26,38.68,1047919
01/16/2015,38.84,40.36,38.65,40.28,950518
01/20/2015,40.21,40.75,39.38,40.2,868101
01/21/2015,40.35,40.83,40.06,40.68,676272
01/22/2015,41.25,42.77,41.08,41.72,731149
01/23/2015,41.61,42.43,41.24,41.76,331435
01/26/2015,45.5,45.56,42.83,45.22,2193263
01/27/2015,44.97,45.59,44.28,44.91,743413
01/28/2015,44.81,45.54,43.19,43.37,954891
01/29/2015,43.33,43.91,42.07,43.74,756611
01/30/2015,43.35,44.66,42.83,43.88,458028
02/02/2015,44.04,45.38,43.46,45.15,649792
02/03/2015,45.16,46.35,44.82,45.88,955316
02/04/2015,45.44,45.81,43.95,45.28,715916
02/05/2015,45.83,46.5,45.38,46.07,776655
02/06/2015,46.27,46.69,45.01,45.64,753286
02/09/2015,45.63,46.21,45.05,45.15,379157
02/10/2015,45.4,46.05,44.59,45.62,556429
02/11/2015,45.39,45.94,44.74,45.19,264910
02/12/2015,45.79,46.46,45.61,46.23,339228
02/13/2015,46.84,47.85,46.5,47.24,428738
02/17/2015,47.04,47.89,46.36,47.54,395632
02/18/2015,47.28,47.49,46.77,47.15,252830
02/19/2015,46.5,46.78,45.75,46.36,741561
02/20/2015,46.33,46.9,45.74,46.8,399696
02/23/2015,46.25,47.25,45.51,47.19,412390
02/24/2015,47.44,47.5,45.99,46.44,429383
02/25/2015,46.37,47.8,46.27,47.27,555976
02/26/2015,46.89,47.15,45.88,46.33,706090
02/27/2015,48.59,51.01,47.86,50.36,2064053
03/02/2015,50.5,50.84,49.77,50.65,794172
03/03/2015,50.9,52.33,50.16,52.3,847347
03/04/2015,52.08,52.91,51.06,52.35,497237
03/05/2015,52.11,53.05,51.79,52.88,535160
03/06/2015,52.21,53.2,51.94,53.16,642272
03/09/2015,53.28,53.41,51.78,51.8,358211
03/10/2015,51.24,51.63,50.81,51.55,411701
03/11/2015,51.2,51.65,50.38,50.42,570457
03/12/2015,50.89,51.35,50.5,50.92,439576
03/13/2015,50.76,51.09,49.97,50.78,481358
03/16/2015,50.47,50.69,49.43,50.15,1187953
03/17/2015,49.92,50.8,49.76,50.75,518861
03/18/2015,50.58,51.99,50.09,51.31,739658
03/19/2015,50.93,50.93,49.83,50.52,463697
03/20/2015,50.95,52.05,50.6,51.63,788175
03/23/2015,51.68,51.96,50.99,51.63,380859
03/24/2015,51.6,52.5,50.66,50.83,597535
03/25/2015,51,51.52,50.27,50.4,503989
03/26/2015,50.9,51.94,50.26,50.76,279478
03/27/2015,50.54,52.13,50.54,51.65,639802
03/30/2015,52.03,53.24,51.89,52.9,458575
03/31/2015,52.62,53.28,52.62,53.24,725170
04/01/2015,53.07,54.04,53.07,53.67,893637
04/02/2015,53.51,54.39,53.51,54.08,619441
04/06/2015,54.12,54.55,53.91,54.1,461522
04/07/2015,53.98,54.98,53.7,54.84,594636
04/08/2015,54.98,55.48,54.15,54.82,650376
04/09/2015,54.96,55.58,54.54,55.08,566672
04/10/2015,55.35,55.44,54.49,54.63,316406
04/13/2015,54.66,55.21,54.45,54.65,384640
04/14/2015,54.84,56.18,54.67,55.61,462009
04/15/2015,55.86,56.81,55.62,56.14,618946
04/16/2015,56.05,56.6,55.36,56.1,535570
04/17/2015,55.98,56.18,55.52,55.66,384815
04/20/2015,55.82,56.16,55.25,55.48,397894
04/21/2015,55.52,55.57,54.57,54.98,450182
04/22/2015,55.08,56.11,54.92,55.97,367875
04/23/2015,56.09,56.94,56.01,56.39,446764
04/24/2015,56.63,56.67,55.69,55.82,225068
04/27/2015,56.1,56.1,55.04,55.3,390712
04/28/2015,55.4,55.69,54.82,55.5,458766
04/29/2015,55.44,56.13,55.32,55.94,359197
04/30/2015,55.69,55.98,54.97,55.11,369407
05/01/2015,55.2,55.97,54.91,55.79,428595
05/04/2015,55.73,56.36,55.23,55.42,330060
05/05/2015,55.84,56.11,54.51,54.74,517195
05/06/2015,55.27,55.31,54.01,54.55,517203
05/07/2015,54.67,55.16,53.54,55.03,828817
05/08/2015,54.87,54.87,52.39,53.98,1055059
05/11/2015,54.06,54.06,52.33,52.57,767499
05/12/2015,52.41,53.54,51.97,52.86,564723
05/13/2015,53.47,53.76,52.37,52.92,369909
05/14/2015,53.17,53.52,52.5,52.63,340500
05/15/2015,52.55,53.46,52.13,53.44,407638
05/18/2015,53.38,54.32,52.85,54.25,579286
05/19/2015,54.07,54.24,52.94,53.56,357041
05/20/2015,53.63,54.08,53.08,53.93,291373
05/21/2015,54.07,54.43,53.67,53.92,430277
05/22/2015,53.74,54.09,53.3,53.67,1427099
05/26/2015,53.09,53.7,52.7,53.57,336473
05/27/2015,53.43,53.59,52.72,53.08,330317
05/28/2015,52.86,53.03,51.62,52.24,569596
05/29/2015,52.31,52.58,51.54,51.67,636068
06/01/2015,52.02,52.37,51.44,51.83,345035
06/02/2015,51.81,52.92,51.44,52.25,350731
06/03/2015,52.12,52.65,51.65,51.81,426839
06/04/2015,51.49,51.75,50.85,50.96,235963
06/05/2015,50.93,51.47,50.61,50.97,441640
06/08/2015,50.78,51.19,50.46,50.66,445834
06/09/2015,51.02,51.29,50.43,50.64,322064
06/10/2015,51.17,51.27,50.62,51.19,279852
06/11/2015,51.21,51.57,50.83,51.02,270526
06/12/2015,50.77,51.06,50.41,50.69,269373
06/15/2015,50.38,50.56,49.93,50.15,477038
06/16/2015,50.19,50.49,49.75,50.1,499155
06/17/2015,50.22,51.17,50.13,51.15,407176
06/18/2015,51.34,51.89,51.16,51.87,350254
06/19/2015,51.83,51.97,51.37,51.87,554690
06/22/2015,52.58,53.5,52.1,53.47,518140
06/23/2015,53.26,53.95,52.68,53.83,324505
06/24/2015,53.83,54.08,53.4,53.63,269771
06/25/2015,53.96,53.96,52.78,52.89,274414
06/26/2015,53.16,53.73,52.69,53.69,374874
06/29/2015,53.34,53.47,52.11,52.15,250136
06/30/2015,52.67,53.45,52.13,52.25,377514
07/01/2015,52.97,52.97,50.92,51.1,556243
07/02/2015,51.17,51.52,50.61,50.96,255401
07/06/2015,49.65,50.15,49.04,49.37,549126
07/07/2015,49.43,49.84,48.36,49.73,695015
07/08/2015,49.05,49.63,48.54,48.79,529609
07/09/2015,49.36,49.89,49.18,49.36,399377
07/10/2015,49.96,50.99,49.45,50.93,485395
07/13/2015,51.02,52.61,51.01,52.31,463364
07/14/2015,52.46,53.14,52.37,53.01,282818
07/15/2015,52.96,53.21,51.77,51.88,388471
07/16/2015,52.23,52.42,51.68,51.73,300535
07/17/2015,51.8,51.8,50.95,51.4,251671
07/20/2015,51.4,51.59,50.28,50.31,410779
07/21/2015,50.56,51.33,49.53,49.78,320640
07/22/2015,49.48,49.48,47.49,48.04,627851
07/23/2015,48.18,48.36,47.12,47.18,387557
07/24/2015,47.18,47.88,45.98,46.03,848041
07/27/2015,45.54,45.9,44.8,45.8,682076
07/28/2015,45.79,46.31,44.72,45.99,710139
07/29/2015,45.85,47.87,45.73,47.69,429773
07/30/2015,47.49,47.78,46.85,47.05,376508
07/31/2015,46.93,47.58,46.15,46.76,410182
08/03/2015,46.55,47.26,44.63,44.81,500256
08/04/2015,44.89,45.49,43.64,43.65,702147
08/05/2015,44.15,44.78,39.67,39.98,1972531
08/06/2015,39.74,39.74,38.13,39.19,2160650
08/07/2015,37.53,40.21,35.71,36.01,2183254
08/10/2015,35.94,39.27,35.57,39.06,1634998
08/11/2015,38.5,38.92,37.19,38.15,910292
08/12/2015,37.98,38.87,36.9,38.4,1066875
08/13/2015,38.38,38.38,36.86,37.27,434776
08/14/2015,37.52,38.06,36.15,38.04,773659
08/17/2015,37.94,38.62,37.17,37.98,437795
08/18/2015,38.13,38.24,37.48,37.84,493989
08/19/2015,37.34,38.03,35.96,36.62,268597
08/20/2015,36.33,36.89,35.01,35.04,380137
08/21/2015,34.78,34.81,33.56,34.26,754201
08/24/2015,32.48,34.09,31.5,33.65,1422412
08/25/2015,34.34,34.43,32.88,32.95,1990412
08/26/2015,32.95,33.69,32.32,33.37,672566
08/27/2015,34.05,35.82,33.93,35.62,671768
08/28/2015,35.67,36.38,35.18,36.19,768420
08/31/2015,35.79,36.93,34.97,36.42,777100
09/01/2015,35.84,36.6,34.42,34.7,572442
09/02/2015,34.34,35.43,33.99,35.11,679634
09/03/2015,35.27,35.95,34.38,34.93,462001
09/04/2015,34.32,35.09,33.91,33.91,614540
09/08/2015,34.77,35.05,33.96,34.57,511647
09/09/2015,34.67,35.31,34.05,34.13,441538
09/10/2015,34.44,34.6,33.56,33.99,571751
09/11/2015,33.54,33.59,32.43,32.6,654585
09/14/2015,32.38,32.74,31.87,32.4,475796
09/15/2015,32.42,33.3,32.32,32.71,418149
09/16/2015,33.02,33.59,32.61,33.5,356598
09/17/2015,33.46,34.3,33.3,33.35,368191
09/18/2015,32.98,33.59,32.52,33.21,640417
09/21/2015,33.24,34.62,32.91,33.66,428493
09/22/2015,33.39,33.98,33.21,33.63,535430
09/23/2015,33.6,33.85,32.05,32.48,553656
09/24/2015,32.21,32.46,31.23,32.13,554652
09/25/2015,32.52,32.52,30.87,31.77,504574
09/28/2015,31.24,31.62,29.5,29.62,802023
09/29/2015,29.73,30.17,27.59,27.69,722569
09/30/2015,27.93,28.97,27.45,28.59,853661
10/01/2015,29.34,31.12,29,30.34,738959
10/02/2015,29.77,32.07,29.02,31.85,609223
10/05/2015,32.2,33.62,32.2,33.51,399942
10/06/2015,33.48,35.29,33.43,34.35,538189
10/07/2015,35.11,36.79,34.99,35.38,709907
10/08/2015,35.44,36.17,34.8,35.85,398322
10/09/2015,36.05,36.05,34.69,35.36,411519
10/12/2015,35.33,35.33,33.27,34.32,578079
10/13/2015,34.19,35.26,33.5,34.08,893063
10/14/2015,34.05,34.48,33.14,33.77,497910
10/15/2015,33.74,34.46,32.74,34.45,434286
10/16/2015,34.8,34.93,34.02,34.41,319274
10/19/2015,33.86,34.03,32.74,33.84,300184
10/20/2015,33.68,34.56,33.5,33.59,550569
10/21/2015,33.46,33.73,32.08,32.28,353610
10/22/2015,32.49,32.65,30.57,31.46,363033
10/23/2015,31.54,32.59,31.01,31.73,612326
10/26/2015,31.5,31.81,30.35,30.53,510416
10/27/2015,30.22,30.34,28.22,29.08,688896
10/28/2015,29.27,30.8,29.08,30.26,760835
10/29/2015,30.19,31.22,29.99,30.59,447120
10/30/2015,30.73,30.73,29.71,30.16,866863
11/02/2015,29.95,31.26,29.79,30.27,582596
11/03/2015,30.34,30.88,30.05,30.07,838942
11/04/2015,30.09,30.24,27.16,28.45,1654844
11/05/2015,28.28,28.54,26.39,26.54,1173319
11/06/2015,25.2,26.45,24.05,26.14,2152015
11/09/2015,25.97,26.69,25.11,25.2,902827
11/10/2015,25.04,25.06,24.25,24.8,815962
11/11/2015,24.77,25.25,23.42,23.77,676769
11/12/2015,23.48,23.55,22.54,22.79,632585
11/13/2015,22.82,22.87,21.79,22.63,998008
11/16/2015,22.86,24.34,22.28,24.32,982265
11/17/2015,23.81,24.54,23.15,23.91,830778
11/18/2015,24,24.58,23.69,23.91,663745
11/19/2015,23.83,24.16,23.12,23.28,486225
11/20/2015,23.34,23.52,22.77,23.05,732687
11/23/2015,23.06,23.26,22.65,22.87,739210
11/24/2015,23.12,23.69,22.54,23.32,914717
11/25/2015,23.34,24.21,23.25,23.79,685087
11/27/2015,23.42,23.71,23.23,23.65,187490
11/30/2015,23.87,23.99,22.91,23.26,773522
12/01/2015,23.3,23.54,22.48,22.79,588905
12/02/2015,22.49,22.49,21.04,21.23,784034
12/03/2015,21.38,21.91,20.41,20.61,673253
12/04/2015,20.42,20.46,18.5,19.855,1096738
12/07/2015,19.855,19.855,17.474,18.004,892885
12/08/2015,17.38,18.815,17.38,18.547,959476
12/09/2015,18.688,20.56,18.688,20.34,1735474
12/10/2015,20.34,20.54,19.399,19.788,850284
12/11/2015,19.292,19.292,17.869,17.95,955849
12/14/2015,17.983,18.071,16.461,17.266,1490572
12/15/2015,17.581,18.042,16.957,17.018,710143
12/16/2015,16.937,18.004,16.803,17.749,728521
12/17/2015,17.749,17.749,16.313,16.997,870487
12/18/2015,16.588,16.944,16.159,16.186,1666219
12/21/2015,16.253,16.293,15.133,16.172,1048085
12/22/2015,16.26,17.99,16.246,17.923,1555478
12/23/2015,18.305,20.52,18.178,20,1285873
12/24/2015,20.12,20.74,19.768,19.801,456499
12/28/2015,19.439,20.07,19.003,19.553,1000467
12/29/2015,19.935,20.34,18.909,18.956,957387
12/30/2015,18.48,18.802,18.098,18.554,911935
12/31/2015,18.373,19.406,18.238,19.349,1128984
01/04/2016,18.963,19.379,18.547,19.251,685604
01/05/2016,19.251,19.332,18.782,19.238,780623
01/06/2016,18.661,18.661,16.649,17.507,918810
01/07/2016,16.977,17.313,16.146,16.387,814291
01/08/2016,16.561,17.695,16.139,16.984,889251
01/11/2016,17.058,17.081,15.924,16.239,728302
01/12/2016,16.354,16.95,14.67,15.777,998553
01/13/2016,16.032,16.152,13.369,13.939,997648
01/14/2016,13.999,15.75,13.603,15.391,1329845
01/15/2016,14.241,14.744,12.396,13.248,3557430
01/19/2016,13.503,13.503,11.316,11.356,1981520
01/20/2016,11.215,11.363,10.156,10.377,1743012
01/21/2016,10.511,12.544,10.387,12.527,2691271
01/22/2016,13.12,14.214,12.98,13.57,1662864
01/25/2016,13.094,14.2,12.819,12.993,919464
01/26/2016,13.362,14.12,12.637,13.872,656974
01/27/2016,13.617,14.697,13.395,13.966,1075277
01/28/2016,14.549,15.28,14.321,14.583,847531
01/29/2016,15.164,15.765,14.908,15.302,952023
02/01/2016,14.838,15.06,13.939,14.762,564616
02/02/2016,14.14,14.887,13.898,14.313,627145
02/03/2016,14.624,14.769,13.635,14.43,738727
02/04/2016,14.617,16.298,14.43,15.696,975216
02/05/2016,15.226,15.689,14.915,15.371,531103
02/08/2016,14.755,14.949,13.13,13.337,762852
02/09/2016,12.998,13.074,10.473,10.881,3062441
02/10/2016,11.068,11.449,10.515,11.048,1104385
02/11/2016,10.861,10.947,9.671,10.252,899746
02/12/2016,10.598,11.463,10.363,10.778,612047
02/16/2016,11.234,11.753,10.75,11.698,902671
02/17/2016,11.926,12.687,11.781,12.438,1657727
02/18/2016,12.659,12.659,11.663,12.168,1675694
02/19/2016,11.622,11.802,10.888,11.777,703755
02/22/2016,12.147,13.116,12.12,12.791,636670
02/23/2016,12.5,12.791,11.362,11.386,922480
02/24/2016,11.061,11.608,10.729,11.414,924379
02/25/2016,11.331,12.514,11.165,12.092,1944454
02/26/2016,12.3,13.372,12.293,13.15,1773821
02/29/2016,13.282,13.787,12.535,13.144,1492613
03/01/2016,13.372,13.427,12.561,12.86,1129962
03/02/2016,12.597,13.787,12.352,13.732,1005854
03/03/2016,13.569,15.077,13.512,15.006,1107469
03/04/2016,15.154,16.549,14.85,15.331,1545175
03/07/2016,15.317,16.216,15.098,16.181,716154
03/08/2016,16.174,16.666,14.447,14.517,855156
03/09/2016,14.517,14.525,13.577,13.972,858688
03/10/2016,13.88,14.294,13.383,14.015,534248
03/11/2016,14.39,15.105,14.39,15.027,392836
03/14/2016,14.808,14.992,13.965,14.546,312674
03/15/2016,14.333,14.34,13.272,13.703,501271
03/16/2016,13.703,16.308,13.703,16.181,1389858
03/17/2016,16.386,17.08,15.806,16.825,781212
03/18/2016,17.264,17.66,16.245,16.945,1423528
03/21/2016,16.79,16.896,15.692,15.792,510742
03/22/2016,15.48,16.719,15.063,16.436,476903
03/23/2016,16.117,16.365,14.56,14.843,480240
03/24/2016,14.709,16.513,14.532,15.742,785321
03/28/2016,15.728,15.728,14.808,15.154,485512
03/29/2016,14.808,15.643,14.397,15.388,725960
03/30/2016,15.728,16.117,14.992,15.374,537187
03/31/2016,15.31,16.06,15.2,15.869,753317
04/01/2016,15.246,15.48,14.461,14.871,654105
04/04/2016,14.893,15.282,14.376,14.496,572193
04/05/2016,14.199,14.974,14.196,14.631,409800
04/06/2016,14.907,15.728,14.687,15.501,489216
04/07/2016,15.232,16.025,15.158,15.799,652661
04/08/2016,16.188,17.009,16.018,16.358,412767
04/11/2016,16.393,16.811,16.16,16.429,449918
04/12/2016,16.662,18.51,16.273,18.481,827276
04/13/2016,18.594,18.701,17.851,18.17,740148
04/14/2016,18.233,18.29,17.228,17.703,658459
04/15/2016,17.363,17.66,17.023,17.207,500696
04/18/2016,16.988,18.071,16.499,17.844,822978
04/19/2016,17.972,19.968,17.972,19.791,857754
04/20/2016,19.585,20.031,19.345,19.968,636230
04/21/2016,20.09,20.64,19.642,20.37,404719
04/22/2016,20.62,21.21,20.62,20.86,659171
04/25/2016,20.7,20.84,19.338,19.89,549885
04/26/2016,20.27,20.63,19.826,20.62,414876
04/27/2016,20.87,22.28,20.87,22.25,615951
04/28/2016,22.08,22.88,21.94,22.13,715187
04/29/2016,22.45,22.75,20.9,21.69,668250
05/02/2016,21.44,21.91,20.05,21.02,787307
05/03/2016,20.35,20.5,19.111,19.847,960042
05/04/2016,19.876,20.39,19.345,19.946,657471
05/05/2016,20.34,20.97,19.741,19.989,623235
05/06/2016,20.21,21.31,19.47,20.28,829355
05/09/2016,20.21,20.44,18.814,19.458,841626
05/10/2016,19.791,21.36,19.727,20.24,963960
05/11/2016,19.946,20.87,19.352,20.76,782986
05/12/2016,21.01,21.5,19.876,20.6,497104
05/13/2016,20.24,21.23,20.21,20.69,543775
05/16/2016,21.28,21.82,20.94,21.61,628300
05/17/2016,21.62,22.29,21.39,21.99,585398
05/18/2016,22.03,22.55,21.4,21.87,956654
05/19/2016,21.23,22.34,20.85,22.17,366881
05/20/2016,22.3,22.49,21.66,22.36,468751
05/23/2016,21.95,22.2,21.42,21.83,423384
05/24/2016,22.09,22.09,20.78,20.95,885448
05/25/2016,21.28,22,21.08,21.52,802810
05/26/2016,21.95,21.95,20.24,20.39,985418
05/27/2016,20.13,21.34,19.89,21.21,854531
05/31/2016,21.21,23.3,21,22.85,2498955
06/01/2016,22.41,23.87,22.38,23.38,1277727
06/02/2016,22.97,23.83,22.97,23.71,785922
06/03/2016,23.82,24.15,23.37,23.78,542664
06/06/2016,24.31,24.76,23.92,24.05,765867
06/07/2016,23.96,25.45,23.9,25.18,1379557
06/08/2016,25.61,25.76,24.36,24.46,920873
06/09/2016,23.98,24.34,23.81,23.92,1293542
06/10/2016,23.48,23.64,22.21,22.41,887452
06/13/2016,22.03,22.44,21.36,21.59,906285
06/14/2016,21.38,21.82,20.81,21.36,966118
06/15/2016,21.62,22.39,21.22,21.81,1307779
06/16/2016,21.31,21.59,20.1,20.88,887225
06/17/2016,20.56,21.96,20.2,21.48,6161717
06/20/2016,22.14,22.36,21.5,21.82,1555656
06/21/2016,21.75,22.2,20.85,22.17,1571907
06/22/2016,22.36,22.77,21.99,22.24,1076835
06/23/2016,22.66,23.73,22.49,23.69,1358393
06/24/2016,22.06,22.89,21.98,22.49,2854570
06/27/2016,22.24,22.27,20.68,21.08,1453000
06/28/2016,21.82,23.34,21.76,22.73,1489750
06/29/2016,23.02,23.64,22.62,23.52,1195133
06/30/2016,23.3,23.5,22.73,23.41,1068047
07/01/2016,23.43,24.64,23.21,23.91,601471
07/05/2016,23.23,23.5,22.18,22.91,718426
07/06/2016,22.69,23.06,22.27,23.04,797842
07/07/2016,23.56,23.83,22.47,22.82,667037
07/08/2016,23.2,24,22.9,23.55,791165
07/11/2016,23.89,24.02,23.48,23.61,671307
07/12/2016,24.18,24.57,23.95,24.35,1058141
07/13/2016,24.25,24.56,23.12,23.53,890692
07/14/2016,23.79,24.29,23.46,24,709441
07/15/2016,24.3,24.32,23.76,24.08,681677
07/18/2016,23.99,24.31,23.56,24.07,786730
07/19/2016,24.11,24.13,23.04,23.2,848245
07/20/2016,23.09,23.16,22.49,23.05,960128
07/21/2016,23.17,23.52,22.38,22.38,994155
07/22/2016,22.54,22.83,21.92,22.64,706758
07/25/2016,22.31,22.54,22.06,22.21,491828
07/26/2016,22.05,22.53,21.68,21.72,784281
07/27/2016,21.8,22.26,20.8,21.05,718917
07/28/2016,21.06,21.18,20.59,20.97,609287
07/29/2016,20.62,21.17,20.59,20.82,2080169
08/01/2016,20.8,20.98,19.869,20.42,2095893
08/02/2016,20.49,21.24,20.13,20.51,1305571
08/03/2016,20.71,22.05,20.39,22.05,1092896
08/04/2016,21.87,22.26,21.38,21.95,800567
08/05/2016,22.43,22.82,20.75,21.08,1405270
08/08/2016,21.37,21.96,20.97,21.34,1349971
08/09/2016,21.48,21.52,20.42,20.9,1032097
08/10/2016,21.13,21.13,20.54,20.72,1174756
08/11/2016,20.94,21.55,20.68,21.24,525684
08/12/2016,21.74,22.18,21.07,21.53,940689
08/15/2016,21.72,22.64,21.72,22.43,1361566
08/16/2016,22.48,22.95,22.21,22.79,794794
08/17/2016,22.8,22.8,22.34,22.64,623887
08/18/2016,22.87,23.89,22.64,23.86,1130962
08/19/2016,23.81,23.93,23.16,23.48,1181632
08/22/2016,23.05,23.13,22.59,22.76,838077
08/23/2016,22.59,23.1,22.59,22.92,729296
08/24/2016,22.48,23.03,22.21,22.39,728682
08/25/2016,22.81,23.05,22.51,22.81,765100
08/26/2016,22.86,23.29,22.74,23.15,1046038
08/29/2016,23.05,23.29,22.63,23.24,860680
08/30/2016,23.33,23.54,22.62,22.78,974134
08/31/2016,22.54,22.76,21.91,22.71,876547
09/01/2016,22.53,22.64,22.05,22.37,653392
09/02/2016,22.73,23.13,22.64,22.75,520104
09/06/2016,22.89,23.46,22.86,23.45,575149
09/07/2016,23.49,24.41,23.49,24.32,852065
09/08/2016,24.44,25.46,24.43,25.31,890780
09/09/2016,24.83,25.2,24.54,25.05,991761
09/12/2016,24.73,25.78,23.99,25.4,847777
09/13/2016,24.9,25.14,24.2,24.57,1166849
09/14/2016,24.58,25.13,24.01,24.23,649046
09/15/2016,24.27,24.7,24.16,24.29,627688
09/16/2016,23.92,24.38,23.38,24.27,1277021
09/19/2016,24.57,25.13,24.24,24.26,635949
09/20/2016,24.17,24.51,23.68,23.73,604517
09/21/2016,24.28,24.5,23.92,24.25,674905
09/22/2016,24.64,24.93,24.16,24.46,563369
09/23/2016,24.21,24.7,23.73,23.73,499760
09/26/2016,24.22,24.24,23.54,23.69,857954
09/27/2016,23.13,23.67,22.94,23.18,640721
09/28/2016,23.49,24.76,23.22,24.49,1081555
09/29/2016,24.7,24.93,24.16,24.53,1023744
09/30/2016,25.02,25.89,24.65,25.81,1193602
10/03/2016,25.89,25.89,25.15,25.47,857752
10/04/2016,25.73,25.73,25.19,25.63,908213
10/05/2016,26.09,26.41,25.82,25.87,1174860
10/06/2016,26.28,26.3,25.23,25.47,899616
10/07/2016,25.57,25.57,24.74,25.01,674182
10/10/2016,24.76,25.27,23.75,24.11,2745705
10/11/2016,23.98,24.17,23.28,23.89,1143173
10/12/2016,23.76,24.92,23.58,24.48,875518
10/13/2016,24.24,24.6,23.85,24.27,562868
10/14/2016,24.35,24.68,24.16,24.49,623080
10/17/2016,24.54,24.65,24.13,24.39,380594
10/18/2016,25.67,25.67,24.23,24.83,437298
10/19/2016,25.19,25.45,24.76,25.27,552661
10/20/2016,24.94,25.49,24.79,25.38,223811
10/21/2016,25.16,25.61,25.01,25.38,524788
10/24/2016,25.41,25.85,24.61,25.49,810405
10/25/2016,25.52,25.81,24.68,24.79,745266
10/26/2016,24.17,25.05,24.02,25.01,664335
10/27/2016,25.23,25.38,24.23,24.39,521337
10/28/2016,24.28,24.68,23.95,23.95,474649
10/31/2016,23.88,23.92,22.9,23.55,2074982
11/01/2016,24.39,24.39,22.49,22.82,906537
11/02/2016,22.42,22.78,21.58,22.13,1001254
11/03/2016,22.75,22.82,22.09,22.78,743038
11/04/2016,22.6,22.75,21.65,22.35,1040504
11/07/2016,21.83,23.66,21.18,23.4,1135191
11/08/2016,22.75,24.43,22.75,23.44,764800
11/09/2016,23.29,24.61,23.19,24.17,1008522
11/10/2016,24.57,24.9,23.88,24.35,940197
11/11/2016,24.17,24.5,23.55,24.35,883383
11/14/2016,24.46,24.46,23.37,23.77,784792
11/15/2016,24.39,24.76,24.21,24.5,1032244
11/16/2016,24.54,25.05,24.2,24.46,537768
11/17/2016,25.05,25.5,24.54,25.46,689460
11/18/2016,25.5,26.09,25.17,25.39,691413
11/21/2016,26.05,26.46,25.57,26.35,763795
11/22/2016,26.68,26.68,25.31,25.79,851023
11/23/2016,25.5,26.13,25.5,26.02,699908
11/25/2016,25.91,26.42,25.79,26.31,341673
11/28/2016,26.46,26.63,25.2,25.41,831977
11/29/2016,24.98,25.05,24.17,24.39,748873
11/30/2016,25.61,26.98,25.54,26.72,1820967
12/01/2016,27.39,27.42,26.57,26.94,1035527
12/02/2016,26.65,27.72,26.65,27.27,877166
12/05/2016,27.72,28.27,27.61,27.98,993493
12/06/2016,27.64,28.42,27.24,28.16,755997
12/07/2016,28.09,28.83,28.05,28.75,921444
12/08/2016,28.94,29.87,28.75,29.64,969032
12/09/2016,30.16,30.16,28.56,29.13,1123457
12/12/2016,30.09,30.09,28.83,28.9,1200315
12/13/2016,29.27,29.72,28.68,29.42,683991
12/14/2016,29.24,29.83,28.59,29.01,1371826
12/15/2016,28.94,29.87,28.5,29.46,972018
12/16/2016,29.64,30.57,29.5,30.42,1932082
12/19/2016,30.49,30.83,30.12,30.79,651215
12/20/2016,31.09,31.23,30.16,30.24,762139
12/21/2016,30.35,31.05,30.05,30.83,981159
12/22/2016,31.01,31.05,30.53,30.98,675101
12/23/2016,30.9,31.6,30.68,31.35,764485
12/27/2016,31.57,31.79,31.16,31.49,448280
12/28/2016,31.57,31.97,30.9,30.94,855148
12/29/2016,30.9,31.12,30.68,30.9,522466
12/30/2016,30.98,31.09,30.53,30.9,702946
01/03/2017,31.49,31.86,30.49,31.27,684875
01/04/2017,31.42,31.79,30.98,31.64,378041
01/05/2017,31.72,31.72,30.57,30.94,619505
01/06/2017,31.16,31.2,30.61,30.68,621018
01/09/2017,30.31,30.53,29.72,29.94,839038
01/10/2017,29.9,29.98,29.05,29.35,942892
01/11/2017,29.57,29.87,29.35,29.87,1115886
01/12/2017,30.12,30.38,29.2,29.42,999695
01/13/2017,29.35,29.98,29.35,29.68,790780
01/17/2017,29.98,30.53,29.83,30.46,733802
01/18/2017,30.05,30.39,29.64,29.87,614400
01/19/2017,30.01,30.2,29.87,29.96,437335
01/20/2017,30.27,30.42,29.9,30.01,458885
01/23/2017,29.64,29.94,29.16,29.38,592404
01/24/2017,29.68,30.35,29.28,30.2,640500
01/25/2017,30.24,30.83,30.05,30.64,770931
01/26/2017,30.9,31.2,30.64,30.9,529063
01/27/2017,30.64,30.79,29.72,30.16,410269
01/30/2017,30.05,30.05,28.94,29.46,783291
01/31/2017,29.53,29.53,29.01,29.35,555657
02/01/2017,29.64,30.01,29.16,29.72,501348
02/02/2017,29.94,30.27,29.27,30.2,680168
02/03/2017,30.24,31.27,30.05,31.14,769548
02/06/2017,31.12,31.38,30.2,30.27,415551
02/07/2017,29.98,30.16,29.01,29.05,619599
02/08/2017,28.79,29.24,28.38,29.09,603105
02/09/2017,29.35,29.72,29.27,29.61,400094
02/10/2017,30.2,30.2,29.38,29.64,317341
02/13/2017,29.46,29.85,29.13,29.66,426455
02/14/2017,29.72,30.35,29.38,30.12,496849
02/15/2017,29.9,30.05,29.61,29.98,420269
02/16/2017,30.05,30.35,29.38,29.53,707403
02/17/2017,29.38,29.72,29.01,29.61,679674
02/21/2017,30.16,30.24,29.35,29.38,352140
02/22/2017,28.83,29.27,28.46,28.57,490104
02/23/2017,29.16,29.2,28.35,29.05,679974
02/24/2017,28.31,28.53,26.7,26.87,1950435
02/27/2017,27.05,27.13,26.31,26.39,1422289
02/28/2017,26.02,26.61,25.98,26.05,1419419
03/01/2017,26.39,27.09,26.09,26.68,1251959
03/02/2017,26.2,27.5,26.2,27.13,894849
03/03/2017,27.09,27.69,26.75,27.31,797510
03/06/2017,27.28,27.54,26.94,27.01,859668
03/07/2017,26.98,26.98,26.04,26.4,1061212
03/08/2017,26.41,26.53,25.1,25.25,801147
03/09/2017,25.07,25.18,24.34,25.07,1105982
03/10/2017,25.37,25.52,24.58,25.4,2404986
03/13/2017,25.4,25.89,25.33,25.48,574546
03/14/2017,24.99,25.46,24.54,24.77,674577
03/15/2017,25.18,25.89,25.03,25.82,577484
03/16/2017,25.89,26.04,25.52,25.85,452823
03/17/2017,26.12,26.19,25.59,25.93,1022886
03/20/2017,25.7,26.19,25.57,25.67,472501
03/21/2017,25.74,25.89,24.99,25.25,619525
03/22/2017,25.07,25.38,24.65,24.92,702659
03/23/2017,24.73,25.37,24.65,25.14,529366
03/24/2017,25.22,25.33,24.75,24.84,695770
03/27/2017,24.62,24.99,24.35,24.88,687875
03/28/2017,24.99,25.22,24.73,25.1,570693
03/29/2017,25.1,26.75,24.99,26.53,1808554
03/30/2017,26.64,26.71,26.3,26.6,816920
03/31/2017,26.53,27.05,26.26,26.96,758602
04/03/2017,26.94,27.13,26.41,26.71,453202
04/04/2017,26.79,26.94,26.34,26.75,389007
04/05/2017,27.16,27.46,26.19,26.19,689416
04/06/2017,26.49,26.83,26.15,26.64,530799
04/07/2017,26.75,26.79,26.36,26.64,585250
04/10/2017,26.79,27.01,26.49,26.56,529956
04/11/2017,26.53,26.71,26.26,26.41,379948
04/12/2017,26.41,26.53,26.08,26.45,372655
04/13/2017,26.45,26.6,25.85,25.97,307206
04/17/2017,26,26.08,25.7,26.04,284979
04/18/2017,25.89,26,25.55,25.7,401553
04/19/2017,25.93,25.93,25.07,25.33,487922
04/20/2017,25.48,25.48,24.88,25.07,470991
04/21/2017,24.99,25.18,24.69,25.14,713887
04/24/2017,25.4,25.67,25.03,25.29,471207
04/25/2017,25.37,25.78,25.22,25.74,675008
04/26/2017,25.59,26.34,25.59,25.78,541170
04/27/2017,25.52,25.85,24.88,24.88,767616
04/28/2017,25.25,25.25,24.8,24.95,651753
05/01/2017,24.99,25.27,24.84,25.03,386051
05/02/2017,25.14,25.38,25.03,25.25,675375
05/03/2017,25.1,25.33,24.05,24.24,867446
05/04/2017,24.09,24.09,22.86,23.27,1042610
05/05/2017,22.86,24.17,22.78,24.13,882036
05/08/2017,24.05,24.24,23.57,23.98,583892
05/09/2017,23.9,24.09,23.27,23.3,514306
05/10/2017,23.57,24.02,23.38,23.79,512454
05/11/2017,23.87,24.44,23.72,24.36,648506
05/12/2017,24.29,24.48,24.21,24.36,620959
05/15/2017,25.01,25.43,24.74,24.86,656055
05/16/2017,24.97,25.12,24.7,24.86,464441
05/17/2017,24.59,24.82,24.21,24.67,695514
05/18/2017,24.4,24.67,24.21,24.44,449161
05/19/2017,24.63,25.42,24.55,25.12,652369
05/22/2017,25.39,25.5,24.98,25.31,309459
05/23/2017,25.46,25.5,25.12,25.46,507381
05/24/2017,25.46,25.67,25.16,25.46,569486
05/25/2017,25.5,25.77,25.05,25.27,909474
05/26/2017,25.12,25.31,24.79,24.89,954517
05/30/2017,24.48,24.63,23.91,23.91,531938
05/31/2017,23.41,23.75,23.15,23.56,739462
06/01/2017,23.72,24.25,23.53,23.83,505974
06/02/2017,23.72,24.06,23.6,23.83,511530
06/05/2017,23.75,23.98,23.53,23.79,438618
06/06/2017,23.75,24.13,21.7,21.89,4269220
06/07/2017,21.78,21.97,19.611,20.01,5364019
06/08/2017,19.953,20.14,19.535,20.05,2434412
06/09/2017,20.45,20.87,20.07,20.49,2354362
06/12/2017,20.71,21.47,20.66,21.4,2088026
06/13/2017,22.12,22.12,21.21,21.85,2273787
06/14/2017,21.78,21.82,19.687,19.763,2840061
06/15/2017,19.611,19.839,18.889,18.889,1668974
06/16/2017,18.889,19.345,18.661,19.269,1630611
06/19/2017,19.307,19.383,18.737,18.889,700560
06/20/2017,18.433,18.547,17.711,18.281,1424479
06/21/2017,18.243,18.433,17.141,17.217,1903491
06/22/2017,17.483,18.015,17.331,17.901,1160470
06/23/2017,17.977,18.661,17.825,18.604,1477514
06/26/2017,18.699,19.155,18.49,19.079,1270715
06/27/2017,19.155,20.37,19.079,19.991,3461374
06/28/2017,19.953,20.64,19.877,20.33,1849999
06/29/2017,20.37,20.6,20.11,20.33,1637523
06/30/2017,20.41,20.94,20.28,20.5,1614779
07/03/2017,20.64,20.94,20.52,20.68,423106
07/05/2017,20.6,20.6,19.459,19.763,1040130
07/06/2017,19.991,20.11,19.383,19.459,1333063
07/07/2017,19.345,19.383,18.813,19.345,663459
07/10/2017,19.231,19.535,19.117,19.269,776659
07/11/2017,19.573,19.611,19.098,19.459,734763
07/12/2017,19.877,20.11,19.611,19.801,873249
07/13/2017,19.877,20.14,19.459,20.11,1295708
07/14/2017,20.26,20.75,20.11,20.66,1607903
07/17/2017,20.14,20.6,19.706,19.839,2034508
07/18/2017,19.953,20.181,19.763,20.11,793343
07/19/2017,20.11,20.37,19.877,20.05,1470998
07/20/2017,20.22,20.49,19.877,19.934,950318
07/21/2017,20.03,20.6,19.478,19.82,883488
07/24/2017,19.877,19.953,19.535,19.915,564772
07/25/2017,20.26,20.52,19.99,20.09,833963
07/26/2017,20.26,20.33,19.915,19.934,920804
07/27/2017,20.03,20.68,19.687,20.6,1217125
07/28/2017,20.56,20.92,20.22,20.54,1138818
07/31/2017,20.64,20.64,19.877,20.52,940244
08/01/2017,20.56,20.71,20.18,20.3,813073
08/02/2017,20.03,20.3,19.801,20.07,862992
08/03/2017,20.11,20.11,19.345,19.459,873451
08/04/2017,19.535,19.687,19.193,19.231,1165305
08/07/2017,20.14,20.75,18.604,19.193,1518983
08/08/2017,19.079,19.649,18.737,18.775,1337248
08/09/2017,18.927,19.193,18.319,18.319,1950834
08/10/2017,18.471,18.775,18.015,18.11,1534300
08/11/2017,17.711,18.205,17.711,18.053,1339140
08/14/2017,18.091,18.357,17.901,18.091,499446
08/15/2017,17.863,18.015,17.749,17.901,776707
08/16/2017,17.939,18.21,17.552,17.629,722866
08/17/2017,17.513,18.094,17.513,17.784,1002660
08/18/2017,17.668,18.21,17.548,18.133,1063129
08/21/2017,18.055,18.21,17.707,18.133,1563154
08/22/2017,18.133,18.908,17.96,18.714,1503685
08/23/2017,18.675,19.373,18.52,19.373,1075304
08/24/2017,19.256,19.45,18.985,19.14,798532
08/25/2017,19.218,19.373,19.063,19.121,1114324
08/28/2017,19.179,19.373,18.946,19.063,1142599
08/29/2017,18.985,19.683,18.714,19.683,1243284
08/30/2017,19.566,19.76,19.276,19.528,1225281
08/31/2017,19.721,19.954,19.528,19.954,1142702
09/01/2017,19.876,19.915,19.373,19.411,1219990
09/05/2017,19.683,20.11,19.528,20.05,1263033
09/06/2017,20.19,20.73,20.11,20.57,1865910
09/07/2017,20.5,20.86,20.36,20.69,1711971
09/08/2017,20.53,20.61,19.799,20.24,759700
09/11/2017,20.22,20.5,20.07,20.11,792036
09/12/2017,20.07,21.04,20.07,20.71,1147076
09/13/2017,20.73,21.31,20.73,21.19,1082606
09/14/2017,21.19,21.74,21.19,21.62,1304174
09/15/2017,21.7,21.7,21.19,21.39,2322992
09/18/2017,21.31,21.62,21.31,21.46,872670
09/19/2017,21.54,21.58,20.96,21.08,1025311
09/20/2017,21.15,21.19,20.53,20.77,1325529
09/21/2017,20.73,20.96,20.55,20.71,778834
09/22/2017,20.69,21.39,20.5,21.39,994512
09/25/2017,21.7,22.39,21.62,21.97,1718627
09/26/2017,21.81,22.2,21.7,22.07,496994
09/27/2017,22.08,22.39,21.74,22.36,692383
09/28/2017,22.39,22.43,21.85,22.39,713322
09/29/2017,22.43,22.51,22.1,22.3,1107640
10/02/2017,22.01,22.32,21.89,22.32,792988
10/03/2017,22.32,22.78,22.12,22.74,573064
10/04/2017,22.74,22.86,21.97,21.97,802123
10/05/2017,22.01,22.32,21.89,22.24,1037007
10/06/2017,22.01,22.39,21.77,22.2,519833
10/09/2017,22.28,22.51,22.12,22.24,510860
10/10/2017,22.59,22.74,22.36,22.47,564767
10/11/2017,22.47,22.67,22.36,22.49,354156
10/12/2017,22.28,22.55,22.16,22.3,517454
10/13/2017,22.59,22.78,22.2,22.22,311940
10/16/2017,22.28,22.43,21.46,21.58,742164
10/17/2017,21.46,21.62,20.77,21,909700
10/18/2017,21.12,21.21,20.65,20.88,716910
10/19/2017,20.73,20.92,20.53,20.83,388295
10/20/2017,20.88,20.92,20.46,20.61,461104
10/23/2017,20.57,20.65,19.857,19.954,804448
10/24/2017,20.15,20.3,19.838,20.031,685930
10/25/2017,19.993,20.19,19.179,19.431,827969
10/26/2017,19.334,19.721,19.179,19.489,356878
10/27/2017,19.489,20.19,19.373,19.876,673072
10/30/2017,19.954,20.5,19.838,20.15,766234
10/31/2017,20.22,20.26,19.915,20.19,526366
11/01/2017,20.42,21.08,20.34,20.84,911627
11/02/2017,20.81,21.12,20.34,20.69,676955
11/03/2017,20.65,20.73,20.19,20.53,606643
11/06/2017,20.77,20.81,20.19,20.42,1414030
11/07/2017,20.57,20.96,19.915,20.65,945372
11/08/2017,20.57,20.77,20.03,20.03,695814
11/09/2017,19.373,19.876,18.055,19.702,2110556
11/10/2017,19.605,19.838,19.256,19.411,1014106
11/13/2017,18.985,19.179,18.094,18.133,1969153
11/14/2017,17.939,18.094,17.552,17.745,1964061
11/15/2017,17.397,17.629,17.164,17.358,1572571
11/16/2017,17.435,17.978,17.009,17.745,2124138
11/17/2017,17.706,17.864,16.876,17.824,1540493
11/20/2017,17.706,18.259,17.429,18.101,1322304
11/21/2017,18.141,18.575,17.824,17.963,1861965
11/22/2017,17.943,18.891,17.824,18.358,1236325
11/24/2017,18.338,18.536,18.101,18.2,846114
11/27/2017,18.141,18.141,17.508,17.745,1342798
11/28/2017,17.706,17.903,17.548,17.824,996634
11/29/2017,17.706,18.417,17.706,17.943,1090447
11/30/2017,18.18,18.97,17.903,18.97,1586238
12/01/2017,19.089,19.702,19.089,19.484,1358312
12/04/2017,19.563,20.31,19.484,19.998,1267747
12/05/2017,20.12,20.2,19.524,19.761,938605
12/06/2017,19.642,19.682,19.089,19.366,959383
12/07/2017,19.247,19.998,19.247,19.939,1257595
12/08/2017,20.08,20.55,19.682,20.39,1978411
12/11/2017,20.39,21.18,20.27,20.87,1465105
12/12/2017,20.99,21.62,20.71,21.46,1355129
12/13/2017,21.42,21.78,21.24,21.62,1163120
12/14/2017,21.82,22.69,21.82,22.05,2487436
12/15/2017,22.13,22.33,21.86,21.97,2497766
12/18/2017,22.21,22.76,22.13,22.49,1554948
12/19/2017,22.69,22.96,22.29,22.45,1754811
12/20/2017,22.57,22.84,22.37,22.73,1947169
12/21/2017,22.8,23.26,22.69,22.92,1230251
12/22/2017,22.96,23.16,22.65,23.08,1021837
12/26/2017,23.28,23.75,23.12,23.63,768758
12/27/2017,23.59,23.63,23.28,23.52,626845
12/28/2017,23.52,23.83,23.4,23.71,670684
12/29/2017,23.75,24.19,23.63,23.87,942501
01/02/2018,24.03,24.35,23.48,24.35,1441942
01/03/2018,24.35,24.46,23.97,24.11,1361911
01/04/2018,24.03,24.23,23.44,23.52,1454544
01/05/2018,23.16,23.2,21.78,22.05,2130343
01/08/2018,22.01,22.8,22.01,22.73,1382762
01/09/2018,22.76,22.84,22.13,22.35,733665
01/10/2018,22.41,22.41,21.74,21.82,1522613
01/11/2018,22.05,22.73,21.9,22.69,1281378
01/12/2018,22.8,23.14,22.61,23.12,903719
01/16/2018,23.2,23.67,22.86,22.92,955808
01/17/2018,23.16,23.16,22.29,23.04,1349728
01/18/2018,22.92,23.2,22.65,22.88,1094110
01/19/2018,22.69,23.36,22.29,23.36,953958
01/22/2018,23.4,23.79,23.16,23.2,1335460
01/23/2018,23.28,23.59,22.84,23.48,1006704
01/24/2018,23.52,23.75,23.28,23.32,1216459
01/25/2018,23.52,23.75,23.2,23.52,814269
01/26/2018,23.71,23.99,23.48,23.75,1055534
01/29/2018,23.63,23.67,23.16,23.56,1019366
01/30/2018,23.24,23.32,22.8,23.04,942645
01/31/2018,23.08,23.36,22.41,22.65,880258
02/01/2018,22.53,23,22.33,22.96,706678
02/02/2018,22.69,22.69,21.82,21.86,786779
02/05/2018,21.58,21.93,20.67,20.91,1088169
02/06/2018,20.27,21.84,20.2,21.74,1327510
02/07/2018,21.7,22.09,21.4,21.82,806541
02/08/2018,21.9,21.97,20.67,20.67,984368
02/09/2018,20.99,21.14,19.524,20.08,1778492
02/12/2018,20.43,20.87,19.998,20.71,1294745
02/13/2018,20.59,21.07,20.59,21.03,641528
02/14/2018,20.71,21.46,20.47,21.34,618864
02/15/2018,21.58,21.95,21.26,21.74,844421
02/16/2018,21.62,22.13,21.3,21.42,918359
02/20/2018,21.42,21.78,21.22,21.38,843264
02/21/2018,21.42,21.5,20.89,21.03,1051426
02/22/2018,21.22,21.38,18.891,18.931,3839905
02/23/2018,19.247,20.16,19.247,20.16,2394656
02/26/2018,19.089,19.563,17.864,18.358,4774477
02/27/2018,18.417,18.654,17.943,18.259,1749466
02/28/2018,18.299,18.417,17.508,17.548,1902778
03/01/2018,17.429,18.002,17.271,17.706,2175479
03/02/2018,17.587,17.745,17.073,17.666,1511545
03/05/2018,17.548,18.042,17.311,17.745,1529182
03/06/2018,17.824,17.982,17.271,17.39,1365815
03/07/2018,17.152,17.548,16.599,16.975,1655627
03/08/2018,16.973,17.357,16.933,17.296,1251846
03/09/2018,17.458,18.145,17.337,18.024,1068101
03/12/2018,18.105,18.711,18.105,18.549,1368837
03/13/2018,18.67,18.832,18.105,18.286,1075524
03/14/2018,18.468,18.509,18.024,18.125,810062
03/15/2018,18.307,18.387,16.933,17.7,1613002
03/16/2018,17.822,18.428,17.539,18.145,1343917
03/19/2018,17.983,17.983,17.175,17.62,1599742
03/20/2018,17.781,17.983,17.418,17.62,1193235
03/21/2018,17.862,18.509,17.62,18.408,1076900
03/22/2018,18.185,18.428,17.781,17.822,918039
03/23/2018,17.903,18.064,17.216,17.256,857426
03/26/2018,17.458,17.539,16.569,17.054,959226
03/27/2018,17.175,17.559,16.751,16.933,758569
03/28/2018,16.811,16.973,16.326,16.529,981507
03/29/2018,16.65,17.559,16.407,17.296,1476111
04/02/2018,17.175,17.579,17.013,17.256,1079041
04/03/2018,17.256,17.296,16.529,17.175,1230582
04/04/2018,16.852,17.801,16.65,17.66,1164838
04/05/2018,17.781,18.61,17.781,18.347,1132902
04/06/2018,18.185,18.468,17.66,17.903,1051500
04/09/2018,18.145,18.307,17.741,17.781,799954
04/10/2018,18.105,18.731,17.943,18.226,1480260
04/11/2018,18.266,18.67,18.266,18.428,1063562
04/12/2018,18.428,18.59,18.226,18.307,1328742
04/13/2018,18.307,18.61,18.185,18.428,771995
04/16/2018,18.468,19.479,18.185,19.357,838371
04/17/2018,19.115,19.761,19.074,19.236,990528
04/18/2018,19.438,19.964,19.317,19.923,958672
04/19/2018,19.964,20.33,19.681,19.842,1024643
04/20/2018,19.802,20.004,19.438,19.701,571117
04/23/2018,19.64,19.721,19.206,19.701,1183771
04/24/2018,19.681,20.04,19.014,19.115,723560
04/25/2018,19.074,19.438,18.792,19.438,619130
04/26/2018,19.64,19.964,19.317,19.802,550983
04/27/2018,19.883,20.21,19.681,19.923,655574
04/30/2018,19.802,20.45,19.802,20.33,982759
05/01/2018,20.29,20.29,19.721,19.903,1006533
05/02/2018,19.923,20.17,19.883,19.923,1145811
05/03/2018,19.923,20.13,19.115,19.196,874845
05/04/2018,19.074,19.499,18.994,19.115,1349683
05/07/2018,19.317,19.964,19.196,19.398,1451094
05/08/2018,19.398,19.802,19.034,19.6,1064664
05/09/2018,19.155,20.45,18.185,20.37,1725532
05/10/2018,20.49,20.89,20.33,20.71,899731
05/11/2018,20.77,20.89,20.21,20.37,714970
05/14/2018,20.41,21.18,20.41,21.05,1028504
05/15/2018,21.07,21.11,20.7,20.78,980986
05/16/2018,20.83,21.03,20.66,20.99,598557
05/17/2018,21.07,21.53,20.91,21.4,905363
05/18/2018,21.44,21.44,21.15,21.4,562782
05/21/2018,21.57,21.57,21.13,21.48,513979
05/22/2018,21.57,21.69,20.93,20.95,636522
05/23/2018,20.74,20.91,20.55,20.78,515229
05/24/2018,20.58,20.58,20.17,20.29,633000
05/25/2018,19.797,19.92,19.262,19.776,742912
05/29/2018,19.632,20.25,19.632,20.21,735921
05/30/2018,20.41,21.15,20.21,21.03,965434
05/31/2018,20.83,21.24,20.74,20.87,742587
06/01/2018,20.95,21.73,20.95,21.2,1243716
06/04/2018,21.4,21.42,20.83,20.91,548334
06/05/2018,20.83,21.24,20.83,21.11,462321
06/06/2018,21.11,21.24,20.58,20.6,481866
06/07/2018,20.62,21.03,20.54,20.87,729207
06/08/2018,20.87,21.03,20.48,20.62,513117
06/11/2018,20.04,20.87,19.76,20.7,725302
06/12/2018,20.66,20.87,20.46,20.58,1066847
06/13/2018,20.58,20.58,20.21,20.37,747884
06/14/2018,20.54,20.74,20.21,20.6,773447
06/15/2018,20.5,20.5,19.797,20,775514
06/18/2018,20,20.58,19.71,20.54,906296
06/19/2018,20.21,20.7,20.21,20.62,717180
06/20/2018,20.87,20.95,20.58,20.74,673350
06/21/2018,20.62,20.83,20.46,20.5,1025591
06/22/2018,20.78,21.24,20.08,20.5,2812583
06/25/2018,20.33,20.58,19.92,20.25,1021680
06/26/2018,20.33,20.83,19.96,20.83,762561
06/27/2018,20.99,21.34,20.46,20.5,883110
06/28/2018,20.62,20.99,20.21,20.87,561291
06/29/2018,20.91,21.15,20.76,20.87,584998
07/02/2018,20.78,20.91,20.29,20.66,358578
07/03/2018,20.83,21.15,20.56,20.6,266837
07/05/2018,20.78,21.28,20.78,21.28,613971
07/06/2018,21.03,21.44,21.03,21.24,538735
07/09/2018,21.36,21.44,20.97,21.11,733970
07/10/2018,21.28,21.48,20.87,20.99,579833
07/11/2018,20.74,21.15,20.17,20.25,1107690
07/12/2018,20.33,20.33,19.611,20.04,640095
07/13/2018,20.04,20.33,19.899,20,660603
07/16/2018,19.879,19.961,19.632,19.92,470520
07/17/2018,19.838,20.044,19.447,19.467,773881
07/18/2018,19.467,19.838,19.179,19.797,478548
07/19/2018,19.92,20.56,19.714,20.33,726350
07/20/2018,20.37,20.37,20.13,20.17,549955
07/23/2018,20.29,20.5,20.13,20.13,1667154
07/24/2018,20.33,20.6,19.879,19.941,874924
07/25/2018,20,20.7,19.879,20.62,1119113
07/26/2018,20.66,21.13,20.66,20.91,733843
07/27/2018,20.83,21.4,20.25,20.46,1058544
07/30/2018,20.66,20.78,20.41,20.62,512160
07/31/2018,20.7,20.78,20.33,20.66,642510
08/01/2018,20.58,21.07,20.33,20.7,970583
08/02/2018,20.62,21.53,20.41,21.4,1413219
08/03/2018,21.44,21.83,21.03,21.09,469192
08/06/2018,21.11,21.32,20.91,21.28,647647
08/07/2018,21.44,21.53,21.07,21.26,567437
08/08/2018,21.15,21.46,21.07,21.15,515167
08/09/2018,20.7,22.05,20.37,21.11,969016
08/10/2018,20.95,21.53,20.89,21.3,1262214
08/13/2018,21.24,21.4,20.08,20.13,807149
08/14/2018,20.25,20.54,20.13,20.46,598856
08/15/2018,20.17,20.33,19.632,20.13,716532
08/16/2018,20.21,20.66,20.21,20.45,558228
08/17/2018,20.47,20.64,20.18,20.56,469461
08/20/2018,20.56,21.27,20.56,21.19,742445
08/21/2018,21.4,21.61,21.15,21.25,775179
08/22/2018,21.31,21.65,21.31,21.52,474784
08/23/2018,21.36,21.71,21.27,21.61,638803
08/24/2018,21.82,21.86,21.48,21.57,635568
08/27/2018,21.57,21.73,21.36,21.48,535497
08/28/2018,21.48,21.86,21.19,21.31,502755
08/29/2018,21.4,21.4,21.06,21.1,565389
08/30/2018,21.02,21.02,20.47,20.52,493147
08/31/2018,20.39,20.56,20.01,20.26,519587
09/04/2018,20.39,20.52,19.97,20.26,448578
09/05/2018,20.14,20.2,19.699,20.16,360517
09/06/2018,20.18,20.31,19.929,19.929,568609
09/07/2018,19.845,20.013,19.678,19.929,496788
09/10/2018,20.06,20.35,19.72,19.887,449423
09/11/2018,19.803,20.33,19.803,20.14,615695
09/12/2018,20.31,20.39,20.1,20.18,496426
09/13/2018,19.929,19.971,19.342,19.678,1516022
09/14/2018,19.678,19.72,19.258,19.552,912024
09/17/2018,19.51,19.971,19.279,19.342,816447
09/18/2018,19.426,19.72,19.3,19.384,793592
09/19/2018,19.426,19.594,18.801,18.838,734019
09/20/2018,18.922,19.006,18.671,18.713,452596
09/21/2018,18.755,18.88,18.293,18.377,1511714
09/24/2018,18.419,18.545,17.538,17.664,1001981
09/25/2018,17.706,18.125,17.496,18.041,1259184
09/26/2018,18.041,18.293,17.873,18.083,955668
09/27/2018,18.251,18.587,18.02,18.503,2185268
09/28/2018,18.461,18.797,18.209,18.503,993817
10/01/2018,18.604,19.266,18.536,19.107,741756
10/02/2018,18.998,19.082,18.528,18.662,1199332
10/03/2018,18.721,18.897,18.553,18.645,1118440
10/04/2018,18.578,18.713,18.369,18.461,561603
10/05/2018,18.503,18.671,18.352,18.461,894739
10/08/2018,18.36,18.503,18.142,18.385,792298
10/09/2018,17.697,18.301,17.454,17.974,895761
10/10/2018,17.966,18.226,17.618,17.639,927342
10/11/2018,17.538,17.748,17.248,17.362,754391
10/12/2018,17.58,17.68,17.068,17.462,836705
10/15/2018,17.521,17.706,17.269,17.479,392886
10/16/2018,17.454,18.016,17.353,17.983,490573
10/17/2018,17.949,18.041,17.731,17.832,440590
10/18/2018,17.706,18.058,17.555,17.639,511451
10/19/2018,17.647,18.033,17.588,17.697,548865
10/22/2018,17.714,17.823,17.219,17.362,478420
10/23/2018,17.009,17.009,16.229,16.741,694962
10/24/2018,16.783,16.908,15.834,15.843,1292692
10/25/2018,16.086,16.329,15.91,16.069,628641
10/26/2018,15.893,15.985,15.323,15.641,543771
10/29/2018,15.776,16.019,15.297,15.524,597415
10/30/2018,15.406,15.75,15.251,15.524,631652
10/31/2018,15.742,15.952,15.49,15.507,779863
11/01/2018,15.608,16.397,15.532,16.363,650687
11/02/2018,16.439,16.539,16.019,16.229,610185
11/05/2018,16.43,16.539,16.036,16.447,550483
11/06/2018,16.464,16.573,16.162,16.506,567598
11/07/2018,17.739,18.411,17.605,17.622,1761149
11/08/2018,17.412,17.412,15.918,16.002,1132392
11/09/2018,15.826,15.826,15.079,15.364,1398813
11/12/2018,15.415,15.524,15.096,15.113,1441060
11/13/2018,15.046,15.381,14.878,14.903,1115438
11/14/2018,15.071,15.264,14.651,14.869,734041
11/15/2018,14.777,15.018,14.639,14.725,915427
11/16/2018,14.716,14.876,14.268,14.501,960877
11/19/2018,14.363,14.708,14.104,14.19,1090558
11/20/2018,13.923,14.121,13.458,13.587,1308945
11/21/2018,13.828,14.871,13.828,14.561,1007944
11/23/2018,14.182,14.372,13.88,13.897,487307
11/26/2018,14.061,14.065,13.811,13.897,854212
11/27/2018,13.854,13.88,13.509,13.656,898003
11/28/2018,13.665,13.88,13.328,13.768,886031
11/29/2018,13.837,14.251,13.777,14.018,1226104
11/30/2018,13.871,14.001,13.708,13.992,1222606
12/03/2018,14.294,14.665,14.208,14.604,1668835
12/04/2018,14.63,14.665,13.774,14.027,1503825
12/06/2018,13.751,13.914,13.044,13.604,1742923
12/07/2018,14.027,14.285,13.828,13.949,1513623
12/10/2018,13.751,13.854,13.268,13.277,1882801
12/11/2018,13.484,13.544,13.165,13.354,1536498
12/12/2018,13.561,13.696,13.315,13.466,1576886
12/13/2018,13.458,13.984,13.337,13.966,2085512
12/14/2018,13.794,14.234,13.785,13.949,1529423
12/17/2018,13.897,14.096,13.389,13.535,2365451
12/18/2018,13.501,13.708,13.216,13.242,1156270
12/19/2018,13.302,13.82,13.216,13.363,1813352
12/20/2018,13.199,13.535,12.432,12.733,2434404
12/21/2018,12.69,12.863,12.156,12.242,1584329
12/24/2018,12.121,12.233,11.389,11.414,867811
12/26/2018,11.561,12.251,11.087,12.242,1465918
12/27/2018,11.958,12.113,11.208,11.794,1291794
12/28/2018,11.897,11.94,11.414,11.682,1214237
12/31/2018,11.811,11.923,11.406,11.88,631105
01/02/2019,11.63,12.449,11.44,12.294,781582
01/03/2019,12.414,13.087,12.208,12.483,1573618
01/04/2019,12.751,13.527,12.587,13.427,954602
01/07/2019,13.501,13.966,13.354,13.94,1687580
01/08/2019,14.234,14.59,14.053,14.389,1275153
01/09/2019,14.578,14.587,14.199,14.484,1327817
01/10/2019,14.484,14.846,14.354,14.647,3636957
01/11/2019,14.501,14.587,14.285,14.466,1142033
01/14/2019,14.07,14.803,14.027,14.578,2462831
01/15/2019,14.699,15.285,14.69,15.208,910908
01/16/2019,15.053,15.242,14.932,14.941,693007
01/17/2019,14.803,15.001,14.69,14.863,588341
01/18/2019,15.044,15.061,14.699,14.923,1060950
01/22/2019,14.854,14.889,14.281,14.372,968552
01/23/2019,14.492,14.535,13.828,14.009,819391
01/24/2019,14.009,14.104,13.69,14.053,943807
01/25/2019,14.19,14.432,14.061,14.285,528181
01/28/2019,14.096,14.285,13.88,14.139,778307
01/29/2019,14.303,14.492,14.165,14.268,1568750
01/30/2019,14.337,14.354,13.803,14.156,2892125
01/31/2019,14.268,14.294,13.762,13.811,2829021
02/01/2019,13.846,14.018,13.656,13.811,1285510
02/04/2019,13.69,14.139,13.596,14.061,1134791
02/05/2019,14.018,14.182,13.647,13.794,1465239
02/06/2019,13.725,14.009,13.699,13.82,517869
02/07/2019,13.69,13.82,13.13,13.32,2101395
02/08/2019,13.277,13.397,12.828,13.208,650426
02/11/2019,13.156,13.475,13.078,13.44,623376
02/12/2019,13.708,13.828,13.466,13.647,714823
02/13/2019,13.708,14.139,13.647,14.096,996320
02/14/2019,14.027,14.484,14.027,14.337,780193
02/15/2019,14.458,14.772,14.402,14.553,755769
02/19/2019,14.449,14.945,14.348,14.768,613902
02/20/2019,14.716,14.941,14.699,14.828,876997
02/21/2019,14.803,14.941,14.406,14.518,1090107
02/22/2019,14.716,14.803,14.436,14.509,1035739
02/25/2019,14.501,14.643,14.397,14.518,1370346
02/26/2019,14.553,14.57,14.182,14.199,1271354
02/27/2019,14.259,14.544,13.975,14.311,1568239
02/28/2019,14.285,14.298,12.871,13.561,3605470
03/01/2019,13.679,13.821,13.261,13.519,2195865
03/04/2019,13.599,13.714,13.172,13.443,1065178
03/05/2019,13.448,13.572,13.288,13.376,770670
03/06/2019,13.296,13.372,12.994,13.039,819894
03/07/2019,13.048,13.208,12.905,13.11,1093872
03/08/2019,12.621,12.781,12.248,12.514,1662266
03/11/2019,12.488,13.11,12.488,12.861,1296770
03/12/2019,12.923,13.128,12.834,13.039,994432
03/13/2019,13.11,13.132,12.781,12.87,784657
03/14/2019,12.843,13.101,12.843,13.003,1089733
03/15/2019,12.923,13.021,12.825,12.87,1243301
03/18/2019,12.914,13.163,12.861,13.136,1213633
03/19/2019,13.279,13.448,12.99,13.056,687872
03/20/2019,13.048,13.27,12.781,13.234,952796
03/21/2019,13.19,13.616,13.19,13.305,731627
03/22/2019,13.154,13.181,12.87,12.879,498642
03/25/2019,12.861,13.03,12.608,13.012,491563
03/26/2019,13.145,13.456,12.985,13.101,449871
03/27/2019,13.092,13.216,12.941,13.065,781360
03/28/2019,12.994,13.154,12.825,13.008,605170
03/29/2019,13.199,13.243,12.95,13.11,718686
04/01/2019,13.243,13.545,13.145,13.154,1189004
04/02/2019,13.19,13.448,12.976,13.048,1234511
04/03/2019,13.136,13.279,13.003,13.065,477489
04/04/2019,13.092,13.368,13.03,13.368,825286
04/05/2019,13.403,13.847,13.403,13.821,719299
04/08/2019,13.847,14.016,13.681,13.767,458451
04/09/2019,13.687,13.812,13.501,13.723,646177
04/10/2019,13.794,13.856,13.574,13.741,834708
04/11/2019,13.723,13.883,13.625,13.839,471560
04/12/2019,14.132,14.132,13.83,13.847,408178
04/15/2019,13.794,13.794,13.421,13.456,565434
04/16/2019,13.11,13.136,12.408,12.488,2609502
04/17/2019,12.532,12.858,12.417,12.594,1195556
04/18/2019,12.594,12.594,12.301,12.345,810338
04/22/2019,12.505,12.932,12.417,12.896,765209
04/23/2019,12.959,13.03,12.648,12.683,896853
04/24/2019,12.71,12.71,12.385,12.417,1026529
04/25/2019,12.399,12.399,12.079,12.097,1040031
04/26/2019,12.043,12.07,11.688,11.785,1415818
04/29/2019,11.812,11.812,11.661,11.785,673559
04/30/2019,11.883,11.892,11.474,11.608,891961
05/01/2019,11.661,11.741,11.43,11.43,1206011
05/02/2019,11.332,11.377,10.834,11.012,1821304
05/03/2019,11.163,11.386,11.092,11.359,1560007
05/06/2019,11.314,11.457,11.252,11.323,783892
05/07/2019,11.163,11.261,10.968,11.199,3199978
05/08/2019,11.074,11.883,10.772,11.11,1537343
05/09/2019,11.057,11.094,10.798,11.029,1011801
05/10/2019,11.029,11.87,11.011,11.814,2125726
05/13/2019,11.731,11.925,11.426,11.722,934723
05/14/2019,11.814,12.849,11.814,12.71,2308088
05/15/2019,12.516,12.914,12.442,12.747,1273819
05/16/2019,12.821,13.071,12.701,12.738,1127837
05/17/2019,12.636,12.84,12.609,12.683,860775
05/20/2019,12.72,13.191,12.72,13.108,908135
05/21/2019,13.135,13.348,12.923,12.987,1052451
05/22/2019,12.877,12.877,12.627,12.775,791037
05/23/2019,12.47,12.47,12.156,12.341,609876
05/24/2019,12.507,12.526,12.054,12.239,913034
05/28/2019,12.267,12.433,12.175,12.202,737607
05/29/2019,12.008,12.082,11.509,11.934,1062531
05/30/2019,11.934,12.018,11.537,11.574,907893
05/31/2019,11.306,11.648,11.26,11.639,1056832
06/03/2019,11.722,11.944,11.496,11.593,1260900
06/04/2019,11.722,12.295,11.611,12.119,776092
06/05/2019,12.11,12.147,11.63,11.703,498169
06/06/2019,11.703,11.842,11.44,11.528,908525
06/07/2019,11.565,11.796,11.445,11.694,490070
06/10/2019,11.759,11.824,11.394,11.463,525466
06/11/2019,11.565,11.717,11.413,11.426,640904
06/12/2019,11.306,11.311,10.904,11.066,820063
06/13/2019,11.288,11.316,11.048,11.131,661278
06/14/2019,11.168,11.195,10.674,10.891,1394943
06/17/2019,10.807,10.992,10.447,10.881,975050
06/18/2019,10.992,11.269,10.983,11.038,361071
06/19/2019,11.011,11.094,10.844,11.029,403995
06/20/2019,11.279,11.325,10.715,10.928,791023
06/21/2019,10.918,11.043,10.78,10.928,871297
06/24/2019,10.946,10.983,10.521,10.567,514417
06/25/2019,10.53,10.53,10.216,10.216,483555
06/26/2019,10.346,10.724,10.346,10.595,978249
06/27/2019,10.669,10.761,10.549,10.734,511137
06/28/2019,10.807,11.094,10.807,11.085,756025
07/01/2019,11.279,11.389,11.029,11.048,591922
07/02/2019,11.038,11.075,10.697,10.872,537067
07/03/2019,10.9,11.112,10.854,11.103,306486
07/05/2019,11.057,11.362,11.048,11.362,607939
07/08/2019,11.325,11.426,11.057,11.168,649529
07/09/2019,11.149,11.343,11.112,11.186,705855
07/10/2019,11.325,11.63,11.325,11.565,454692
07/11/2019,11.593,11.722,11.454,11.5,523401
07/12/2019,11.463,11.676,11.463,11.593,650401
07/15/2019,11.62,11.731,11.371,11.556,572664
07/16/2019,11.528,11.648,11.399,11.537,541795
07/17/2019,11.546,11.591,11.158,11.168,831538
07/18/2019,11.122,11.145,10.66,10.881,577155
07/19/2019,10.854,11.038,10.78,10.891,592621
07/22/2019,10.918,11.057,10.715,11.011,630494
07/23/2019,11.14,11.509,10.66,10.955,827343
07/24/2019,10.992,11.362,10.992,11.269,924121
07/25/2019,11.352,11.38,11.034,11.343,939765
07/26/2019,11.371,11.371,11.011,11.029,583081
07/29/2019,11.029,11.094,10.669,10.687,503961
07/30/2019,10.632,11.103,10.577,11.103,763114
07/31/2019,11.149,12.313,11.117,11.713,2252158
08/01/2019,11.5,11.611,11.094,11.182,1207798
08/02/2019,11.214,11.306,10.743,10.881,488660
08/05/2019,10.65,10.771,10.087,10.161,1044782
08/06/2019,10.244,10.438,9.976,10.281,885510
08/07/2019,10.124,10.138,9.648,9.819,1194474
08/08/2019,9.902,10.115,9.815,10.022,775303
08/09/2019,9.902,9.927,9.025,9.043,1540655
08/12/2019,8.969,9.256,8.757,9.246,1046587
08/13/2019,9.136,9.366,8.96,9.2,1148717
08/14/2019,9.028,9.193,8.875,9.038,1545483
08/15/2019,8.892,8.999,8.466,8.592,1274848
08/16/2019,8.63,9.018,8.514,8.999,684815
08/19/2019,9.144,9.532,9.096,9.455,639152
08/20/2019,9.406,9.707,9.397,9.649,846628
08/21/2019,9.823,9.901,9.649,9.678,854356
08/22/2019,9.668,9.726,9.188,9.212,628075
08/23/2019,8.921,9.055,8.33,8.349,1753534
08/26/2019,8.417,8.447,8.068,8.214,973423
08/27/2019,8.291,8.291,7.855,7.952,1957480
08/28/2019,8.049,8.64,7.961,8.398,1129972
08/29/2019,8.475,8.689,8.369,8.514,974487
08/30/2019,8.572,8.64,8.407,8.572,1827859
09/03/2019,8.417,8.417,8.01,8.204,1398242
09/04/2019,8.33,8.437,8.136,8.272,1481179
09/05/2019,8.369,8.698,8.301,8.456,598772
09/06/2019,8.378,8.621,8.262,8.553,382566
09/09/2019,8.621,9.086,8.611,9.077,847026
09/10/2019,9.096,9.581,9.096,9.319,1256102
09/11/2019,9.426,9.494,9.106,9.455,842352
09/12/2019,9.241,9.571,9.174,9.513,884711
09/13/2019,9.639,10.114,9.618,9.969,1135204
09/16/2019,16.136,16.582,15.981,16,34011558
09/17/2019,16.029,16.146,15.884,15.971,11253542
09/18/2019,15.991,16.107,15.932,16.078,7117614
09/19/2019,16.126,16.291,16.107,16.175,4315439
09/20/2019,16.252,16.359,16.194,16.311,4264818
09/23/2019,16.272,16.33,16.165,16.194,2394405
09/24/2019,16.204,16.223,15.937,15.981,1882654
09/25/2019,15.952,16.02,15.84,16,1774686
09/26/2019,15.991,16.01,15.835,15.903,718244
09/27/2019,15.826,15.923,15.806,15.894,1150809
09/30/2019,15.845,15.952,15.816,15.865,3336107
10/01/2019,15.855,15.962,15.797,15.826,1945871
10/02/2019,15.806,15.816,15.564,15.612,1531176
10/03/2019,15.554,15.768,15.486,15.758,1898630
10/04/2019,15.787,16.097,15.768,15.923,2986669
10/07/2019,15.923,15.952,15.739,15.758,2507051
10/08/2019,15.69,15.729,15.448,15.448,1387736
10/09/2019,15.622,15.671,15.37,15.38,1409699
10/10/2019,15.341,15.545,15.341,15.515,1290584
10/11/2019,15.671,15.69,15.477,15.486,1605256
10/14/2019,15.438,15.535,15.351,15.467,1176170
10/15/2019,15.428,15.564,15.389,15.491,838085
10/16/2019,15.389,15.564,15.389,15.496,1591816
10/17/2019,15.554,15.612,15.467,15.545,1630333
10/18/2019,15.515,15.826,15.515,15.787,1898680
10/21/2019,15.865,15.889,15.739,15.836,1355170
10/22/2019,15.855,15.894,15.685,15.719,890183
10/23/2019,15.671,15.719,15.554,15.69,1963403
10/24/2019,15.748,15.748,15.515,15.515,858267
10/25/2019,15.428,15.671,15.428,15.535,2822882
10/28/2019,15.574,15.709,15.389,15.419,1122954
10/29/2019,15.37,15.583,15.351,15.419,1433063
10/30/2019,15.409,15.554,15.36,15.438,3045848
10/31/2019,15.419,15.637,15.341,15.612,1748278
11/01/2019,15.68,15.874,15.671,15.806,2390091
11/04/2019,15.903,16.01,15.792,15.889,762138
11/05/2019,15.971,15.971,15.7,15.903,936685
11/06/2019,15.865,15.874,15.603,15.651,1020559
11/07/2019,15.806,15.903,15.428,15.506,1556808
11/08/2019,15.467,15.617,15.312,15.583,1747774
11/11/2019,15.496,15.545,15.399,15.409,1701849
11/12/2019,15.448,15.54,15.137,15.157,4113344
11/13/2019,14.98,15.01,14.59,14.85,1719522
11/14/2019,14.92,14.965,14.685,14.895,1510794
11/15/2019,14.97,15.265,14.97,15.205,1497739
11/18/2019,15.14,15.22,14.945,14.99,805469
11/19/2019,15,15.14,14.79,15.03,1684461
11/20/2019,15.08,15.125,14.93,15,909370
11/21/2019,15.04,15.455,15.01,15.42,2501350
11/22/2019,15.48,15.51,15.3,15.46,795066
11/25/2019,15.4,15.73,15.4,15.66,1595210
11/26/2019,15.62,15.67,15.41,15.455,1775599
11/27/2019,15.51,15.51,15.25,15.4,756973
11/29/2019,15.29,15.46,15.29,15.37,748648
12/02/2019,15.42,15.46,15.2,15.22,1898860
12/03/2019,15.08,15.245,15.01,15.05,4913123
12/04/2019,15.09,15.16,14.96,15.02,32022168
